#Creator: pendulumdriveEventBuffer
#Creation time: Mon Mar 25 09:38:23 2019
#Time	Pos
#[s]	[au]
0.050	430
0.100	391
0.151	357
0.201	329
0.251	298
0.301	287
0.351	283
0.401	277
0.452	292
0.502	305
0.552	336
0.602	371
0.652	400
0.703	443
0.753	478
0.803	513
0.853	546
0.904	553
0.954	588
1.005	596
1.055	587
1.105	591
1.155	571
1.205	548
1.255	516
1.306	467
1.356	446
1.406	409
1.456	368
1.506	341
1.557	313
1.607	290
1.657	282
1.707	276
1.757	284
1.808	298
1.859	315
1.909	356
1.959	389
2.009	425
2.059	464
2.110	487
2.160	533
2.210	562
2.260	575
2.310	596
2.360	594
2.411	597
2.461	587
2.511	549
2.561	533
2.611	498
2.661	458
2.713	426
2.763	387
2.813	352
2.863	323
2.913	294
2.964	284
3.014	279
3.064	274
3.114	289
3.164	311
3.214	337
3.265	372
3.315	398
3.365	446
3.415	482
3.465	513
3.515	552
3.566	569
3.617	592
3.667	601
3.717	579
3.767	595
3.818	576
3.868	545
3.918	517
3.968	477
4.018	445
4.068	407
4.119	364
4.169	336
4.219	309
4.269	282
4.319	277
4.369	281
4.420	280
4.470	296
4.521	313
4.571	356
4.621	389
4.672	422
4.722	465
4.772	496
4.822	535
4.872	565
4.922	569
4.973	601
5.023	602
5.073	596
5.123	590
5.173	556
5.223	534
5.274	501
5.324	454
5.375	426
5.425	387
5.475	346
5.526	320
5.576	315
5.626	280
5.676	274
5.726	272
5.776	285
5.827	305
5.877	330
5.927	370
5.977	407
6.027	446
6.078	484
6.128	510
6.178	554
6.228	577
6.279	593
6.329	604
6.380	579
6.430	597
6.480	580
6.530	540
6.580	517
6.630	481
6.681	441
6.731	406
6.781	371
6.831	334
6.881	305
6.932	284
6.982	273
7.032	272
7.082	272
7.132	292
7.183	319
7.234	353
7.284	388
7.334	418
7.384	467
7.434	502
7.484	537
7.535	569
7.585	568
7.635	604
7.685	607
7.735	592
7.786	592
7.836	565
7.886	533
7.936	500
7.986	450
8.036	424
8.088	385
8.138	345
8.188	316
8.238	293
8.288	272
8.339	269
8.389	270
8.439	281
8.489	303
8.539	330
8.589	370
8.640	406
8.690	446
8.740	487
8.790	508
8.840	556
8.890	581
8.941	589
8.992	609
9.042	603
9.092	601
9.142	583
9.193	538
9.243	518
9.293	483
9.343	436
9.393	404
9.443	366
9.494	328
9.544	302
9.594	276
9.644	270
9.694	269
9.744	270
9.795	290
9.845	318
9.896	352
9.946	388
9.996	417
10.047	468
10.097	505
10.147	535
10.197	572
10.247	587
10.297	606
10.348	610
10.398	589
10.448	594
10.498	569
10.548	529
10.598	500
10.649	460
10.699	423
10.749	385
10.800	343
10.850	314
10.901	291
10.951	269
11.001	268
11.051	275
11.101	279
11.151	301
11.202	329
11.252	369
11.302	407
11.352	443
11.402	487
11.452	517
11.503	559
11.553	585
11.603	587
11.653	611
11.704	608
11.755	597
11.805	584
11.855	543
11.905	517
11.955	481
12.005	432
12.056	402
12.106	364
12.156	325
12.206	300
12.256	297
12.307	268
12.357	267
12.407	268
12.457	289
12.507	317
12.557	348
12.609	389
12.659	426
12.709	469
12.759	507
12.809	529
12.859	573
12.910	592
12.960	604
13.010	612
13.060	581
13.110	594
13.161	570
13.211	524
13.261	499
13.311	460
13.361	416
13.411	382
13.462	351
13.513	311
13.563	288
13.613	270
13.663	266
13.713	271
13.764	276
13.814	303
13.864	335
13.914	372
13.964	410
14.015	442
14.065	491
14.115	524
14.165	559
14.215	585
14.265	580
14.316	609
14.366	608
14.417	587
14.467	580
14.517	542
14.567	512
14.618	478
14.668	431
14.718	398
14.768	362
14.818	321
14.869	298
14.919	281
14.969	264
15.019	269
15.069	276
15.119	294
15.170	324
15.220	354
15.271	395
15.321	433
15.371	472
15.422	511
15.472	527
15.522	574
15.572	594
15.622	593
15.672	606
15.723	596
15.773	585
15.823	560
15.873	510
15.923	490
15.973	453
16.024	406
16.074	376
16.124	341
16.175	304
16.225	289
16.276	274
16.326	273
16.376	278
16.426	286
16.476	314
16.526	343
16.577	380
16.627	421
16.677	449
16.727	496
16.777	531
16.827	551
16.878	584
16.928	590
16.978	602
17.028	599
17.079	570
17.130	566
17.180	533
17.230	491
17.280	465
17.330	424
17.380	388
17.431	355
17.481	320
17.531	299
17.581	287
17.631	276
17.681	281
17.732	295
17.782	312
17.832	343
17.882	368
17.932	410
17.984	447
18.034	478
18.084	517
18.134	542
18.184	571
18.234	585
18.285	577
18.335	591
18.385	582
18.435	560
18.485	540
18.535	500
18.586	472
18.636	438
18.686	393
18.736	368
18.786	339
18.837	308
18.888	299
18.938	295
18.988	291
19.038	300
19.088	309
19.139	339
19.189	371
19.239	399
19.289	438
19.339	465
19.390	503
19.440	532
19.490	542
19.540	571
19.590	576
19.640	577
19.691	574
19.741	541
19.792	538
19.842	510
19.892	468
19.942	446
19.993	411
20.043	377
20.093	354
20.143	341
20.193	316
20.244	308
20.294	301
20.344	310
20.394	324
20.444	340
20.494	368
20.545	398
20.595	429
20.645	461
20.696	480
20.746	516
20.796	534
20.847	549
20.897	561
20.947	541
20.997	559
21.047	548
21.098	518
21.148	508
21.198	480
21.248	450
21.298	424
21.348	389
21.399	372
21.449	352
21.499	333
21.549	329
21.600	326
21.651	324
21.701	338
21.751	347
21.801	372
21.851	397
21.901	416
21.952	448
22.002	471
22.052	493
22.102	514
22.152	511
22.202	537
22.253	541
22.303	531
22.353	532
22.403	515
22.453	501
22.505	481
22.555	446
22.605	435
22.655	413
22.705	386
22.755	374
22.806	362
22.856	350
22.906	348
22.956	344
23.006	355
23.056	367
23.107	376
23.157	398
23.207	417
23.257	439
23.307	459
23.358	466
23.409	493
23.459	505
23.509	506
23.559	519
23.609	516
23.660	514
23.710	507
23.760	482
23.810	479
23.860	463
23.910	437
23.961	427
24.011	409
24.061	396
24.111	384
24.161	368
24.212	370
24.262	369
24.313	366
24.363	378
24.413	387
24.463	398
24.514	413
24.564	418
24.614	443
24.664	457
24.714	466
24.764	484
24.815	488
24.865	498
24.915	502
24.965	489
25.015	496
25.066	490
25.116	474
25.167	470
25.217	455
25.267	445
25.317	431
25.368	407
25.418	406
25.468	396
25.518	384
25.568	384
25.619	383
25.669	384
25.719	389
25.769	388
25.819	404
25.869	414
25.920	420
25.970	438
26.020	447
26.071	463
26.121	475
26.171	471
26.222	489
26.272	492
26.322	489
26.372	493
26.422	482
26.473	481
26.523	473
26.573	453
26.623	450
26.673	438
26.723	421
26.774	414
26.824	403
26.874	395
26.924	388
26.975	376
27.025	383
27.076	384
27.126	385
27.176	397
27.226	406
27.276	418
27.327	430
27.377	436
27.427	458
27.477	469
27.527	478
27.577	490
27.628	484
27.678	501
27.728	501
27.778	488
27.828	493
27.879	480
27.930	468
27.980	458
28.030	437
28.080	429
28.130	414
28.181	392
28.231	390
28.281	379
28.331	370
28.381	372
28.431	367
28.482	377
28.532	385
28.582	388
28.632	411
28.682	427
28.732	441
28.784	461
28.834	467
28.884	490
28.934	502
28.984	505
29.035	515
29.085	513
29.135	511
29.185	504
29.235	480
29.285	478
29.336	461
29.386	436
29.436	424
29.486	405
29.536	384
29.587	375
29.637	357
29.688	358
29.738	356
29.788	352
29.838	365
29.889	376
29.939	388
29.989	408
30.039	418
30.089	449
30.139	469
30.190	480
30.240	505
30.290	514
30.340	527
30.390	531
30.441	517
30.491	525
30.541	513
30.592	490
30.642	480
30.692	455
30.743	434
30.793	413
30.843	384
30.893	373
30.943	358
30.993	342
31.044	341
31.094	343
31.144	346
31.194	358
31.244	366
31.295	391
31.345	414
31.395	432
31.445	463
31.496	481
31.546	505
31.597	522
31.647	520
31.697	543
31.747	544
31.797	535
31.847	531
31.898	509
31.948	496
31.998	473
32.048	439
32.098	422
32.149	398
32.199	369
32.249	356
32.299	343
32.349	333
32.400	329
32.451	328
32.501	342
32.551	357
32.601	372
32.651	400
32.702	423
32.752	452
32.802	478
32.852	488
32.902	522
32.952	536
33.003	543
33.053	552
33.103	530
33.153	541
33.203	527
33.253	497
33.305	483
33.355	457
33.405	427
33.455	403
33.505	383
33.556	358
33.606	342
33.656	326
33.706	326
33.756	329
33.806	329
33.857	350
33.907	373
33.957	391
34.007	418
34.057	434
34.107	473
34.158	494
34.209	515
34.259	535
34.309	527
34.359	550
34.410	551
34.460	533
34.510	531
34.560	509
34.610	484
34.660	462
34.711	431
34.761	408
34.811	385
34.861	357
34.911	347
34.961	337
35.012	328
35.062	331
35.113	335
35.163	351
35.213	370
35.264	384
35.314	416
35.364	440
35.414	464
35.464	490
35.514	493
35.565	527
35.615	537
35.665	533
35.715	542
35.765	533
35.815	523
35.866	507
35.916	470
35.967	463
36.017	439
36.067	406
36.118	392
36.168	373
36.218	353
36.268	348
36.318	337
36.368	343
36.419	350
36.469	355
36.519	377
36.569	395
36.619	416
36.670	440
36.720	450
36.770	482
36.820	499
36.871	505
36.921	523
36.972	524
37.022	527
37.072	522
37.122	498
37.172	498
37.222	481
37.273	456
37.323	442
37.373	421
37.423	402
37.473	388
37.524	368
37.574	366
37.624	361
37.674	356
37.724	365
37.775	374
37.826	384
37.876	400
37.926	406
37.976	434
38.026	452
38.076	461
38.127	482
38.177	491
38.227	503
38.277	508
38.327	495
38.378	506
38.428	499
38.478	483
38.528	478
38.578	461
38.628	450
38.680	434
38.730	411
38.780	407
38.830	396
38.880	381
38.931	382
38.981	379
39.031	380
39.081	385
39.131	384
39.181	400
39.232	410
39.282	420
39.332	438
39.382	447
39.432	463
39.482	474
39.533	469
39.584	489
39.634	492
39.684	489
39.734	493
39.785	483
39.835	481
39.885	473
39.935	453
39.985	451
40.035	439
40.086	422
40.136	417
40.186	405
40.236	399
40.286	393
40.336	381
40.387	388
40.437	389
40.488	388
40.538	400
40.588	408
40.639	418
40.689	430
40.739	432
40.789	453
40.839	463
40.889	471
40.940	483
40.990	475
41.040	491
41.090	493
41.140	480
41.190	488
41.241	478
41.291	468
41.341	461
41.392	442
41.442	436
41.493	423
41.543	404
41.593	402
41.643	394
41.693	384
41.743	383
41.794	383
41.844	385
41.894	391
41.944	392
41.994	409
42.044	421
42.095	432
42.145	448
42.195	451
42.245	474
42.296	486
42.347	486
42.397	500
42.447	501
42.497	501
42.547	499
42.597	475
42.648	481
42.698	469
42.748	447
42.798	439
42.848	422
42.899	405
42.949	395
42.999	374
43.049	375
43.099	371
43.149	362
43.201	372
43.251	378
43.301	384
43.351	402
43.401	408
43.451	434
43.502	450
43.552	462
43.602	484
43.652	495
43.702	509
43.753	516
43.803	503
43.853	517
43.903	511
43.953	494
44.003	489
44.054	469
44.105	452
44.155	434
44.205	405
44.255	396
44.305	380
44.356	360
44.406	358
44.456	355
44.506	352
44.556	360
44.607	363
44.657	383
44.707	401
44.757	416
44.807	441
44.857	461
44.908	482
44.958	501
45.009	500
45.059	526
45.109	531
45.159	522
45.210	528
45.260	515
45.310	505
45.360	486
45.410	457
45.461	443
45.511	420
45.561	392
45.611	379
45.661	363
45.711	350
45.762	344
45.812	336
45.863	344
45.913	354
45.963	362
46.014	387
46.064	407
46.114	431
46.164	456
46.214	469
46.264	501
46.315	517
46.365	526
46.415	540
46.465	536
46.515	540
46.565	532
46.616	506
46.666	498
46.716	476
46.767	448
46.817	427
46.868	401
46.918	380
46.968	361
47.018	340
47.068	337
47.118	334
47.169	332
47.219	344
47.269	359
47.319	377
47.369	399
47.419	416
47.470	450
47.520	473
47.570	494
47.620	518
47.671	524
47.722	542
47.772	547
47.822	530
47.872	537
47.922	522
47.972	501
48.023	483
48.073	452
48.123	432
48.173	406
48.223	374
48.273	363
48.324	348
48.374	334
48.424	333
48.474	343
48.524	342
48.576	356
48.626	366
48.676	396
48.726	419
48.776	442
48.826	471
48.877	479
48.927	513
48.977	529
49.027	528
49.077	544
49.127	540
49.178	534
49.228	523
49.278	491
49.328	483
49.378	459
49.429	427
49.480	410
49.530	387
49.580	364
49.630	354
49.680	341
49.731	338
49.781	341
49.831	342
49.881	360
49.931	377
49.982	394
50.032	421
50.082	435
50.132	468
50.182	489
50.232	499
50.283	522
50.333	528
50.384	534
50.434	535
50.484	511
50.534	516
50.585	499
50.635	473
50.685	459
50.735	434
50.785	411
50.836	393
50.886	369
50.936	362
50.986	353
51.036	344
51.086	350
51.137	357
51.187	366
51.237	385
51.288	394
51.338	423
51.388	445
51.439	459
51.489	485
51.539	498
51.589	513
51.639	523
51.690	511
51.740	524
51.790	517
51.840	499
51.890	491
51.940	469
51.991	454
52.041	435
52.091	404
52.141	396
52.192	382
52.243	366
52.293	363
52.343	360
52.393	362
52.443	368
52.493	373
52.544	392
52.594	409
52.644	423
52.694	447
52.744	462
52.794	481
52.845	495
52.895	492
52.945	512
52.995	514
53.045	507
53.097	506
53.147	492
53.197	483
53.247	467
53.297	440
53.347	432
53.398	415
53.448	396
53.498	388
53.548	379
53.598	373
53.648	372
53.699	368
53.749	380
53.799	390
53.849	398
53.899	416
53.950	430
54.001	448
54.051	464
54.101	466
54.151	488
54.201	495
54.252	497
54.302	503
54.352	495
54.402	494
54.452	485
54.502	464
54.553	460
54.603	445
54.653	428
54.703	418
54.753	406
54.804	396
54.854	388
54.905	376
54.955	384
55.005	387
55.055	388
55.106	401
55.156	411
55.206	423
55.256	436
55.306	441
55.356	461
55.407	470
55.457	476
55.507	487
55.557	479
55.607	490
55.658	487
55.708	472
55.759	474
55.809	465
55.859	451
55.909	445
55.960	429
56.010	422
56.060	413
56.110	398
56.160	400
56.211	397
56.261	394
56.311	401
56.361	399
56.411	412
56.461	419
56.512	422
56.562	439
56.612	447
56.663	453
56.713	464
56.763	459
56.814	474
56.864	476
56.914	468
56.964	474
57.014	468
57.065	461
57.115	457
57.165	439
57.215	441
57.265	433
57.315	420
57.366	419
57.416	415
57.466	408
57.516	412
57.567	401
57.617	413
57.668	417
57.718	414
57.768	429
57.818	434
57.868	440
57.919	447
57.969	440
58.019	456
58.069	460
58.119	454
58.169	463
58.220	459
58.270	458
58.320	457
58.370	442
58.420	448
58.471	444
58.522	433
58.572	436
58.622	430
58.672	428
58.722	427
58.773	417
58.823	426
58.873	427
58.923	423
58.973	432
59.023	431
59.074	436
59.124	440
59.174	434
59.224	444
59.274	446
59.324	442
59.376	448
59.426	445
59.476	446
59.526	446
59.576	432
59.627	443
59.677	440
59.727	434
59.777	439
59.827	436
59.877	437
59.928	437
59.978	430
60.028	439
60.078	440
60.128	436
60.179	443
60.229	442
60.280	444
60.330	445
60.380	436
60.430	444
60.481	443
60.531	436
60.581	440
60.631	435
60.681	435
60.731	434
60.782	420
60.832	430
60.882	429
60.932	424
60.982	431
61.033	431
61.083	434
61.133	438
61.184	430
61.234	445
61.284	447
61.335	448
61.385	456
61.435	455
61.485	459
61.535	459
61.585	448
61.636	456
61.686	452
61.736	445
61.786	445
61.836	434
61.887	433
61.937	428
61.987	416
62.037	420
62.088	416
62.138	411
62.189	415
62.239	415
62.289	419
62.339	424
62.389	421
62.439	435
62.490	441
62.540	445
62.590	456
62.640	454
62.690	466
62.741	470
62.791	464
62.841	473
62.891	469
62.941	465
62.992	462
63.043	447
63.093	447
63.143	438
63.193	421
63.243	421
63.294	413
63.344	404
63.394	403
63.444	393
63.494	401
63.544	404
63.595	402
63.645	415
63.695	422
63.745	430
63.795	444
63.845	441
63.897	464
63.947	471
63.997	472
64.047	484
64.097	483
64.148	483
64.198	484
64.248	466
64.298	470
64.348	460
64.398	443
64.449	438
64.499	424
64.549	413
64.599	405
64.649	388
64.699	391
64.750	389
64.801	384
64.851	392
64.901	398
64.951	405
65.002	418
65.052	420
65.102	444
65.152	456
65.202	462
65.252	480
65.303	485
65.353	495
65.403	499
65.453	485
65.503	494
65.553	487
65.604	471
65.654	465
65.705	450
65.755	437
65.805	423
65.856	401
65.906	396
65.956	387
66.006	375
66.056	377
66.106	377
66.157	380
66.207	388
66.257	393
66.307	413
66.357	427
66.407	439
66.458	461
66.508	471
66.559	487
66.609	498
66.659	493
66.710	509
66.760	508
66.810	498
66.860	496
66.910	480
66.960	470
67.011	454
67.061	429
67.111	420
67.161	404
67.211	384
67.262	379
67.312	371
67.362	367
67.412	367
67.463	364
67.513	381
67.564	393
67.614	403
67.664	426
67.714	441
67.764	462
67.814	480
67.865	481
67.915	507
67.965	514
68.015	513
68.065	518
68.116	506
68.166	503
68.216	491
68.266	466
68.316	457
68.367	437
68.418	413
68.468	401
68.518	383
68.568	372
68.618	364
68.668	352
68.719	359
68.769	365
68.819	370
68.869	387
68.919	405
68.970	422
69.020	444
69.070	453
69.120	483
69.170	498
69.220	509
69.272	523
69.322	510
69.372	526
69.422	521
69.472	502
69.523	497
69.573	478
69.623	456
69.673	438
69.723	415
69.773	397
69.824	380
69.874	360
69.924	356
69.974	351
70.024	348
70.074	356
70.125	359
70.176	381
70.226	399
70.276	413
70.326	442
70.377	462
70.427	483
70.477	502
70.527	503
70.577	526
70.627	532
70.678	523
70.728	528
70.778	514
70.828	501
70.878	483
70.928	451
70.979	440
71.029	418
71.080	388
71.130	376
71.180	362
71.231	346
71.281	346
71.331	338
71.381	351
71.431	360
71.481	371
71.532	395
71.582	415
71.632	438
71.682	464
71.732	470
71.782	505
71.833	519
71.883	523
71.933	538
71.984	534
72.034	533
72.085	523
72.135	493
72.185	488
72.235	466
72.285	437
72.335	419
72.386	395
72.436	374
72.486	360
72.536	340
72.586	341
72.636	340
72.687	340
72.737	355
72.787	371
72.837	390
72.888	413
72.939	427
72.989	462
73.039	485
73.089	497
73.139	522
73.189	528
73.240	540
73.290	542
73.340	524
73.390	527
73.440	510
73.491	486
73.541	469
73.591	443
73.641	420
73.691	397
73.741	370
73.793	358
73.843	347
73.893	333
73.943	338
73.993	344
74.043	352
74.094	368
74.144	380
74.194	410
74.244	435
74.294	454
74.345	484
74.395	498
74.445	521
74.495	534
74.545	529
74.595	543
74.646	537
74.697	523
74.747	513
74.797	487
74.847	471
74.897	446
74.948	413
74.998	398
75.048	377
75.098	356
75.148	348
75.199	349
75.249	339
75.299	343
75.349	348
75.399	368
75.449	387
75.500	405
75.550	434
75.601	451
75.651	481
75.701	503
75.751	509
75.802	532
75.852	537
75.902	537
75.952	537
76.002	512
76.053	512
76.103	493
76.153	462
76.203	447
76.253	423
76.303	396
76.354	380
76.404	367
76.455	351
76.505	344
76.555	338
76.606	347
76.656	357
76.706	366
76.756	390
76.806	410
76.856	434
76.907	458
76.957	471
77.007	500
77.057	513
77.107	525
77.157	534
77.208	520
77.258	531
77.308	521
77.359	497
77.409	489
77.460	466
77.510	442
77.560	423
77.610	399
77.660	383
77.710	369
77.761	352
77.811	351
77.861	349
77.911	352
77.961	364
78.011	371
78.062	395
78.112	415
78.162	428
78.212	458
78.263	475
78.314	493
78.364	510
78.414	502
78.464	525
78.514	526
78.564	514
78.615	512
78.665	497
78.715	480
78.765	465
78.815	434
78.865	425
78.916	405
78.966	384
79.016	376
79.066	367
79.116	360
79.168	362
79.218	359
79.268	375
79.318	387
79.368	396
79.418	419
79.469	437
79.519	455
79.569	474
79.619	476
79.669	500
79.719	508
79.770	507
79.820	513
79.870	505
79.920	501
79.970	490
80.021	465
80.072	460
80.122	443
80.172	421
80.222	411
80.272	397
80.323	386
80.373	379
80.423	366
80.473	374
80.523	378
80.574	381
80.624	396
80.674	409
80.724	423
80.774	438
80.824	444
80.875	467
80.925	478
80.976	482
81.026	495
81.076	493
81.126	498
81.177	496
81.227	476
81.277	481
81.327	469
81.377	452
81.428	445
81.478	431
81.528	420
81.578	410
81.628	395
81.678	396
81.729	391
81.779	388
81.829	393
81.880	397
81.930	404
81.980	413
82.031	416
82.081	434
82.131	444
82.181	451
82.231	464
82.282	468
82.332	477
82.382	481
82.432	473
82.482	481
82.532	478
82.583	469
82.633	467
82.683	451
82.733	451
82.784	443
82.835	426
82.885	427
82.935	419
82.985	410
83.035	410
83.085	407
83.136	406
83.186	409
83.236	401
83.286	415
83.336	419
83.386	424
83.437	433
83.487	431
83.537	446
83.587	453
83.637	450
83.689	464
83.739	465
83.789	466
83.839	470
83.889	461
83.939	467
83.990	464
84.040	452
84.090	456
84.140	449
84.190	442
84.240	439
84.291	423
84.341	427
84.391	423
84.441	412
84.491	416
84.542	414
84.593	410
84.643	414
84.693	407
84.743	419
84.793	424
84.844	421
84.894	435
84.944	439
84.994	444
85.044	453
85.094	446
85.145	463
85.195	467
85.245	462
85.295	472
85.345	469
85.396	469
85.446	466
85.497	450
85.547	457
85.597	450
85.647	436
85.698	436
85.748	428
85.798	418
85.848	415
85.898	401
85.948	406
85.999	404
86.049	398
86.099	407
86.149	410
86.199	414
86.250	423
86.300	422
86.351	440
86.401	450
86.451	453
86.501	467
86.552	472
86.602	478
86.652	483
86.702	474
86.752	484
86.803	480
86.853	466
86.903	468
86.953	456
87.003	448
87.053	438
87.104	416
87.154	416
87.204	407
87.255	392
87.305	394
87.355	389
87.406	389
87.456	392
87.506	389
87.556	405
87.606	415
87.657	422
87.707	440
87.757	450
87.807	465
87.857	477
87.907	475
87.958	495
88.008	498
88.058	495
88.108	499
88.159	489
88.209	484
88.260	474
88.310	450
88.360	448
88.410	432
88.460	413
88.511	404
88.561	390
88.611	383
88.661	377
88.711	368
88.761	375
88.812	381
88.862	384
88.912	400
88.962	413
89.012	429
89.063	446
89.114	454
89.164	478
89.214	492
89.264	498
89.314	511
89.365	505
89.415	514
89.465	511
89.515	491
89.565	489
89.615	474
89.666	454
89.716	439
89.766	419
89.816	403
89.866	388
89.916	368
89.968	366
90.018	362
90.068	356
90.118	366
90.168	378
90.219	386
90.269	401
90.319	412
90.369	439
90.419	458
90.469	475
90.520	496
90.570	495
90.620	520
90.670	525
90.720	516
90.771	524
90.821	513
90.872	499
90.922	486
90.972	457
91.022	445
91.073	424
91.123	397
91.173	385
91.223	370
91.273	356
91.323	350
91.374	347
91.424	352
91.474	361
91.524	368
91.574	391
91.625	410
91.675	430
91.725	456
91.776	467
