#Creator: pendulumdriveEventBuffer
#Creation time: Mon Mar 25 09:38:23 2019
#Time	Pos
#[s]	[au]
0.050	348
0.100	373
0.151	417
0.201	451
0.251	487
0.302	520
0.352	530
0.402	566
0.453	577
0.503	579
0.553	583
0.603	564
0.653	554
0.703	528
0.754	477
0.804	462
0.854	426
0.904	386
0.954	359
1.005	330
1.055	304
1.105	288
1.155	273
1.206	275
1.256	282
1.307	289
1.357	316
1.407	345
1.457	376
1.507	411
1.558	435
1.608	478
1.658	509
1.708	534
1.758	558
1.808	559
1.859	578
1.909	578
1.959	555
2.009	553
2.059	528
2.110	497
2.161	468
2.211	428
2.261	400
2.311	368
2.361	332
2.412	315
2.462	299
2.512	282
2.562	283
2.612	300
2.662	298
2.713	318
2.763	332
2.813	372
2.863	405
2.913	434
2.963	470
3.015	486
3.065	527
3.115	548
3.165	546
3.215	570
3.266	568
3.316	563
3.366	551
3.416	512
3.466	503
3.516	473
3.567	432
3.617	408
3.667	376
3.717	344
3.767	325
3.817	303
3.868	296
3.919	292
3.969	288
4.019	302
4.069	318
4.120	336
4.170	367
4.220	387
4.270	430
4.320	461
4.370	482
4.421	518
4.471	534
4.521	552
4.571	561
4.621	546
4.671	559
4.722	547
4.772	520
4.823	506
4.873	476
4.923	448
4.974	416
5.024	376
5.074	359
5.124	336
5.174	312
5.224	305
5.275	300
5.325	297
5.375	306
5.425	313
5.475	339
5.526	364
5.576	385
5.626	423
5.676	451
5.727	482
5.777	508
5.828	510
5.878	543
5.928	552
5.978	549
6.028	555
6.078	540
6.129	528
6.179	508
6.229	469
6.279	455
6.329	425
6.380	390
6.430	369
6.480	347
6.530	327
6.581	315
6.631	299
6.682	305
6.732	310
6.782	316
6.832	340
6.882	361
6.932	388
6.983	417
7.033	433
7.083	472
7.133	497
7.183	513
7.234	535
7.284	538
7.334	551
7.384	551
7.434	524
7.485	528
7.536	508
7.586	480
7.636	460
7.686	429
7.736	404
7.787	377
7.837	344
7.887	334
7.937	321
7.987	306
8.037	309
8.088	315
8.138	322
8.188	339
8.238	352
8.288	383
8.338	410
8.390	433
8.440	465
8.490	484
8.540	512
8.590	529
8.641	527
8.691	547
8.741	546
8.791	537
8.841	529
8.891	503
8.942	490
8.992	465
9.042	427
9.092	410
9.142	383
9.192	354
9.243	339
9.294	329
9.344	316
9.394	313
9.444	309
9.495	323
9.545	337
9.595	352
9.645	380
9.695	403
9.745	432
9.796	459
9.846	471
9.896	507
9.946	522
9.996	535
10.046	544
10.097	527
10.147	541
10.198	530
10.248	500
10.298	494
10.349	467
10.399	440
10.449	416
10.499	383
10.549	365
10.599	345
10.650	324
10.700	320
10.750	315
10.800	308
10.850	322
10.900	327
10.951	352
11.001	375
11.051	389
11.102	427
11.152	452
11.203	475
11.253	503
11.303	501
11.353	534
11.403	542
11.453	535
11.504	543
11.554	530
11.604	518
11.654	499
11.704	457
11.755	449
11.805	423
11.855	389
11.905	371
11.955	349
12.006	331
12.057	321
12.107	309
12.157	314
12.207	320
12.257	325
12.307	348
12.358	369
12.408	393
12.458	421
12.508	432
12.558	473
12.609	496
12.659	509
12.709	532
12.759	537
12.809	544
12.859	544
12.911	520
12.961	523
13.011	503
13.061	474
13.111	456
13.161	427
13.212	401
13.262	376
13.312	344
13.362	335
13.412	323
13.463	309
13.513	313
13.563	318
13.613	327
13.663	343
13.713	353
13.764	388
13.815	414
13.865	436
13.915	469
13.965	487
14.015	513
14.066	530
14.116	527
14.166	547
14.216	545
14.266	533
14.317	527
14.367	503
14.417	486
14.467	462
14.517	425
14.567	407
14.618	381
14.668	352
14.719	338
14.769	324
14.819	314
14.870	311
14.920	306
14.970	322
15.020	338
15.070	352
15.120	381
15.171	406
15.221	435
15.271	463
15.321	477
15.371	511
15.421	527
15.472	538
15.522	548
15.572	534
15.623	543
15.673	532
15.724	502
15.774	494
15.824	467
15.874	437
15.924	414
15.974	386
16.025	360
16.075	340
16.125	318
16.175	313
16.225	310
16.275	304
16.326	318
16.376	339
16.426	351
16.476	375
16.527	390
16.578	430
16.628	457
16.678	480
16.728	508
16.778	508
16.828	540
16.879	549
16.929	538
16.979	548
17.029	533
17.079	520
17.129	500
17.180	463
17.230	448
17.280	419
17.330	384
17.380	365
17.432	342
17.482	320
17.532	314
17.582	303
17.632	307
17.682	315
17.733	320
17.783	346
17.833	368
17.883	392
17.933	424
17.983	439
18.034	479
18.084	504
18.134	516
18.184	541
18.234	546
18.285	554
18.336	551
18.386	524
18.436	527
18.486	505
18.536	472
18.587	454
18.637	423
18.687	395
18.737	369
18.787	339
18.838	327
18.888	315
18.938	302
18.988	306
19.038	311
19.088	320
19.139	340
19.190	353
19.240	388
19.290	417
19.340	436
19.390	474
19.441	496
19.491	521
19.541	538
19.591	532
19.641	554
19.692	552
19.742	537
19.792	531
19.842	507
19.892	487
19.942	461
19.993	421
20.043	403
20.094	376
20.144	346
20.194	332
20.244	318
20.295	309
20.345	305
20.395	304
20.445	320
20.495	337
20.546	352
20.596	383
20.646	407
20.696	439
20.746	468
20.796	481
20.847	516
20.897	533
20.947	540
20.998	553
21.048	546
21.099	546
21.149	534
21.199	501
21.249	493
21.299	467
21.349	434
21.400	411
21.450	383
21.500	358
21.550	338
21.600	314
21.650	311
21.701	308
21.751	304
21.801	317
21.851	334
21.902	352
21.953	377
22.003	394
22.053	432
22.103	459
22.153	482
22.203	510
22.254	520
22.304	540
22.354	549
22.404	538
22.454	547
22.504	535
22.555	516
22.605	498
22.655	466
22.705	446
22.755	419
22.807	384
22.857	366
22.907	345
22.957	322
23.007	317
23.057	319
23.108	311
23.158	318
23.208	324
23.258	349
23.308	370
23.358	392
23.409	424
23.459	442
23.509	477
23.559	501
23.609	509
23.660	536
23.711	542
23.761	547
23.811	547
23.861	519
23.911	522
23.962	503
24.012	470
24.062	454
24.112	426
24.162	397
24.212	374
24.263	351
24.313	334
24.363	322
24.413	310
24.463	313
24.514	318
24.564	322
24.615	346
24.665	367
24.715	389
24.765	417
24.816	432
24.866	469
24.916	491
24.966	513
25.016	530
25.067	522
25.117	545
25.167	544
25.217	528
25.267	525
25.317	504
25.368	484
25.418	462
25.468	423
25.519	408
25.569	383
25.619	354
25.670	341
25.720	329
25.770	317
25.820	316
25.870	313
25.921	328
25.971	342
26.021	354
26.071	384
26.121	408
26.171	436
26.222	462
26.272	471
26.322	506
26.372	522
26.423	527
26.473	543
26.524	539
26.574	538
26.624	527
26.674	491
26.724	491
26.775	467
26.825	436
26.875	416
26.925	390
26.975	368
27.025	348
27.076	328
27.126	324
27.176	319
27.226	314
27.276	327
27.327	341
27.378	357
27.428	379
27.478	393
27.528	429
27.578	454
27.629	473
27.679	500
27.729	513
27.779	531
27.829	539
27.879	527
27.930	539
27.980	528
28.030	510
28.080	496
28.130	469
28.180	448
28.232	424
28.282	389
28.332	375
28.382	354
28.432	334
28.483	326
28.533	322
28.583	319
28.633	326
28.683	330
28.733	352
28.784	373
28.834	392
28.884	421
28.934	444
28.984	472
29.035	496
29.085	502
29.136	528
29.186	536
29.236	537
29.286	540
29.337	525
29.387	519
29.437	501
29.487	466
29.537	456
29.587	429
29.638	398
29.688	380
29.738	359
29.788	341
29.838	328
29.889	313
29.939	319
29.990	323
30.040	328
30.090	348
30.140	367
30.191	390
30.241	416
30.291	428
30.341	466
30.391	489
30.441	507
30.492	526
30.542	517
30.592	542
30.642	542
30.692	524
30.743	524
30.793	505
30.843	483
30.894	463
30.944	429
30.994	410
31.045	385
31.095	356
31.145	344
31.195	330
31.245	316
31.295	317
31.346	319
31.396	328
31.446	343
31.496	355
31.546	384
31.597	408
31.647	430
31.697	462
31.747	471
31.798	507
31.848	524
31.899	526
31.949	544
31.999	541
32.049	540
32.099	530
32.150	495
32.200	493
32.250	469
32.300	434
32.350	416
32.400	390
32.451	364
32.501	346
32.551	323
32.601	320
32.651	316
32.702	310
32.753	323
32.803	337
32.853	352
32.903	378
32.953	392
33.004	430
33.054	456
33.104	474
33.154	505
33.204	520
33.254	536
33.305	545
33.355	527
33.405	544
33.455	534
33.505	512
33.555	500
33.607	472
33.657	448
33.707	422
33.757	384
33.807	369
33.858	348
33.908	325
33.958	318
34.008	314
34.058	312
34.108	319
34.159	324
34.209	348
34.259	371
34.309	390
34.359	424
34.409	448
34.460	478
34.511	503
34.561	508
34.611	537
34.661	545
34.712	546
34.762	549
34.812	534
34.862	526
34.912	506
34.962	469
35.013	455
35.063	426
35.113	394
35.163	372
35.213	349
35.263	331
35.314	318
35.364	304
35.415	309
35.465	315
35.515	320
35.566	343
35.616	365
35.666	390
35.716	418
35.766	435
35.816	475
35.867	499
35.917	517
35.967	539
36.017	539
36.067	554
36.118	553
36.168	529
36.218	531
36.268	510
36.319	483
36.369	461
36.420	429
36.470	403
36.520	376
36.570	344
36.620	331
36.670	318
36.721	304
36.771	306
36.821	325
36.871	320
36.921	337
36.972	352
37.022	384
37.072	412
37.122	438
37.172	471
37.223	482
37.274	519
37.324	538
37.374	537
37.424	556
37.474	552
37.524	548
37.575	537
37.625	501
37.675	494
37.725	466
37.775	430
37.826	409
37.876	381
37.926	350
37.976	334
38.026	319
38.076	308
38.128	304
38.178	302
38.228	316
38.278	332
38.328	348
38.379	379
38.429	399
38.479	436
38.529	466
38.579	483
38.629	517
38.680	533
38.730	549
38.780	557
38.830	537
38.880	552
38.930	540
38.981	513
39.032	500
39.082	471
39.132	442
39.182	414
39.233	375
39.283	358
39.333	336
39.383	313
39.433	308
39.483	303
39.534	302
39.584	313
39.634	320
39.684	347
39.734	372
39.784	394
39.835	431
39.885	458
39.936	487
39.986	514
40.036	514
40.087	548
40.137	555
40.187	550
40.237	555
40.287	540
40.337	526
40.388	505
40.438	464
40.488	449
40.538	419
40.588	384
40.638	362
40.689	339
40.739	321
40.790	309
40.840	298
40.890	303
40.941	310
40.991	320
41.041	343
41.091	367
41.141	394
41.191	424
41.242	442
41.292	482
41.342	507
41.392	523
41.442	545
41.492	549
41.543	559
41.593	556
41.643	531
41.694	530
41.744	508
41.795	477
41.845	456
41.895	423
41.945	396
41.995	369
42.045	337
42.096	326
42.146	312
42.196	300
42.246	303
42.296	311
42.347	320
42.397	340
42.447	354
42.497	389
42.547	418
42.598	442
42.649	477
42.699	498
42.749	525
42.799	543
42.849	539
42.899	559
42.950	555
43.000	543
43.050	534
43.100	507
43.150	489
43.201	462
43.251	419
43.301	402
43.351	374
43.401	344
43.451	329
43.503	317
43.553	305
43.603	303
43.653	301
43.703	318
43.753	335
43.804	352
43.854	384
43.904	412
43.954	442
44.004	472
44.055	487
44.105	521
44.155	537
44.205	549
44.255	558
44.305	532
44.356	550
44.407	537
44.457	505
44.507	494
44.557	465
44.607	435
44.658	408
44.708	381
44.758	354
44.808	333
44.858	312
44.909	308
44.959	304
45.009	301
45.059	317
45.109	341
45.159	353
45.210	379
45.260	398
45.311	436
45.361	464
45.411	490
45.462	516
45.512	514
45.562	547
45.612	554
45.662	543
45.712	551
45.763	537
45.813	519
45.863	499
45.913	455
45.963	445
46.013	415
46.064	378
46.114	361
46.164	340
46.215	320
46.265	312
46.316	301
46.366	307
46.416	316
46.466	324
46.516	350
46.566	373
46.617	400
46.667	431
46.717	445
46.767	485
46.817	509
46.867	521
46.918	544
46.968	548
47.018	554
47.068	552
47.119	521
47.170	525
47.220	503
47.270	471
47.320	452
47.370	421
47.420	394
47.471	369
47.521	338
47.571	328
47.621	316
47.671	304
47.721	308
47.772	316
47.822	328
47.872	346
47.922	360
47.972	395
48.024	423
48.074	445
48.124	479
48.174	500
48.224	524
48.274	540
48.325	533
48.375	554
48.425	551
48.475	537
48.525	529
48.575	504
48.626	484
48.676	458
48.726	418
48.776	401
48.826	375
48.877	344
48.928	332
48.978	319
49.028	311
49.078	309
49.128	318
49.179	325
49.229	342
49.279	359
49.329	390
49.379	415
49.430	444
49.480	473
49.530	483
49.580	521
49.630	535
49.680	543
49.731	553
49.782	545
49.832	545
49.882	532
49.932	496
49.982	489
50.033	463
50.083	430
50.133	407
50.183	379
50.233	356
50.284	336
50.334	314
50.384	313
50.434	310
50.484	308
50.534	323
50.585	341
50.635	359
50.686	383
50.736	402
50.786	440
50.836	466
50.887	490
50.937	517
50.987	525
51.037	546
51.087	553
51.138	537
51.188	549
51.238	533
51.288	514
51.338	495
51.388	459
51.439	440
51.489	413
51.539	377
51.590	359
51.640	338
51.691	320
51.741	312
51.791	319
51.841	309
51.891	319
51.941	328
51.992	354
52.042	378
52.092	402
52.142	435
52.192	454
52.242	490
52.293	514
52.343	523
52.393	546
52.443	551
52.494	555
52.545	551
52.595	515
52.645	522
52.695	499
52.745	465
52.795	446
52.846	415
52.896	384
52.946	362
52.996	335
53.046	323
53.096	312
53.147	302
53.197	308
53.247	316
53.297	326
53.347	350
53.399	363
53.449	400
53.499	430
53.549	448
53.599	485
53.649	507
53.700	530
53.750	545
53.800	536
53.850	557
53.900	553
53.950	533
54.001	526
54.051	502
54.101	478
54.151	452
54.201	412
54.252	393
54.303	367
54.353	337
54.403	325
54.453	315
54.503	305
54.554	306
54.604	306
54.654	324
54.704	344
54.754	361
54.804	395
54.855	421
54.905	452
54.955	481
55.005	490
55.055	527
55.106	542
55.156	545
55.207	558
55.257	550
55.307	546
55.357	531
55.408	495
55.458	485
55.508	457
55.558	423
55.608	398
55.659	371
55.709	348
55.759	329
55.809	309
55.859	306
55.909	305
55.960	304
56.010	322
56.060	340
56.111	362
56.161	389
56.211	404
56.262	447
56.312	475
56.362	496
56.412	525
56.462	534
56.513	552
56.563	558
56.613	543
56.663	549
56.713	534
56.763	511
56.814	492
56.864	458
56.914	434
56.964	405
57.015	369
57.065	352
57.116	332
57.166	312
57.216	308
57.266	307
57.316	308
57.367	319
57.417	329
57.467	357
57.517	383
57.567	408
57.617	441
57.668	459
57.718	496
57.768	520
57.818	524
57.868	551
57.919	555
57.970	556
58.020	553
58.070	515
58.120	520
58.170	496
58.221	456
58.271	440
58.321	408
58.371	376
58.421	356
58.471	341
58.522	317
58.572	309
58.622	298
58.672	306
58.722	316
58.772	326
58.824	352
58.874	378
58.924	405
58.974	434
59.024	455
59.075	492
59.125	514
59.175	535
59.225	550
59.275	538
59.325	559
59.376	553
59.426	532
59.476	524
59.526	499
59.576	473
59.627	446
59.677	407
59.728	385
59.778	360
59.828	332
59.878	320
59.929	309
59.979	298
60.029	304
60.079	311
60.129	327
60.179	347
60.230	365
60.280	400
60.330	428
60.380	457
60.430	487
60.481	495
60.531	533
60.582	547
60.632	546
60.682	560
60.732	552
60.783	545
60.833	527
60.883	489
60.933	480
60.983	451
61.033	414
61.084	392
61.134	366
61.184	340
61.234	324
61.284	306
61.335	304
61.385	304
61.435	305
61.486	324
61.536	343
61.586	366
61.637	395
61.687	413
61.737	454
61.787	481
61.837	500
61.887	530
61.938	540
61.988	554
62.038	559
62.088	539
62.138	548
62.189	531
62.239	503
62.289	486
62.339	455
62.390	428
62.440	400
62.491	364
62.541	347
62.591	328
62.641	308
62.691	305
62.742	305
62.792	309
62.842	321
62.892	332
62.942	363
62.992	389
63.043	413
63.093	448
63.143	471
63.193	502
63.243	526
63.294	527
63.345	553
63.395	557
63.445	552
63.495	551
63.545	528
63.596	515
63.646	491
63.696	451
63.746	434
63.796	404
63.846	372
63.897	352
63.947	332
63.997	315
64.047	308
64.097	298
64.147	308
64.199	319
64.249	332
64.299	358
64.349	383
64.399	412
64.450	442
64.500	460
64.550	498
64.600	520
64.650	536
64.700	551
64.751	536
64.801	558
64.851	551
64.901	525
64.951	519
65.001	494
65.052	465
65.103	439
65.153	407
65.203	381
65.253	356
65.304	328
65.354	318
65.404	309
65.454	300
65.504	307
65.554	319
65.605	332
65.655	354
65.705	371
65.755	407
65.805	435
65.855	462
65.906	493
65.956	500
66.007	536
66.057	548
66.107	546
66.158	559
66.208	551
66.258	539
66.308	524
66.358	485
66.408	473
66.459	444
66.509	408
66.559	385
66.609	360
66.659	336
66.710	321
66.760	302
66.810	305
66.860	306
66.911	308
66.961	328
67.012	349
67.062	371
67.112	401
67.162	419
67.212	460
67.262	487
67.313	505
67.363	533
67.413	543
67.463	556
67.513	559
67.564	537
67.614	544
67.664	526
67.714	494
67.764	478
67.815	447
67.866	418
67.916	390
67.966	356
68.016	341
68.066	323
68.116	306
68.167	305
68.217	306
68.267	312
68.317	326
68.367	336
68.418	369
68.468	396
68.518	418
68.568	456
68.618	479
68.668	508
68.720	530
68.770	530
68.820	555
68.870	558
68.920	550
68.971	547
69.021	526
69.071	509
69.121	484
69.171	443
69.221	424
69.272	395
69.322	362
69.372	344
69.422	325
69.472	312
69.522	305
69.573	298
69.624	310
69.674	322
69.724	336
69.774	364
69.825	390
69.875	420
69.925	451
69.975	466
70.025	506
70.075	527
70.126	540
70.176	555
70.226	552
70.276	558
70.326	550
70.376	520
70.427	514
70.477	487
70.528	454
70.578	430
70.628	398
70.679	370
70.729	346
70.779	320
70.829	312
70.879	305
70.929	296
70.980	306
71.030	319
71.080	336
71.130	359
71.180	376
71.230	416
71.281	445
71.331	470
71.382	503
71.432	518
71.482	543
71.533	554
71.583	542
71.633	560
71.683	551
71.733	536
71.783	519
71.834	484
71.884	464
71.934	435
71.984	396
72.034	375
72.084	350
72.135	324
72.185	314
72.235	316
72.286	300
72.336	305
72.387	309
72.437	332
72.487	354
72.537	376
72.587	411
72.637	435
72.688	470
72.738	499
72.788	512
72.838	541
72.888	550
72.939	560
72.989	562
73.039	530
73.089	541
73.139	522
73.190	488
73.241	471
73.291	439
73.341	408
73.391	381
73.441	351
73.491	332
73.542	317
73.592	302
73.642	302
73.692	303
73.742	306
73.793	329
73.843	343
73.893	376
73.943	405
73.993	426
74.043	465
74.095	491
74.145	517
74.195	538
74.245	534
74.295	559
74.345	560
74.396	543
74.446	545
74.496	523
74.546	503
74.596	476
74.647	435
74.697	416
74.747	388
74.797	352
74.847	338
74.897	321
74.948	307
74.999	303
75.049	299
75.099	311
75.149	327
75.199	340
75.250	371
75.300	398
75.350	428
75.400	459
75.450	472
75.501	512
75.551	532
75.601	541
75.651	558
75.701	555
75.751	556
75.802	547
75.852	514
75.903	508
75.953	481
76.003	447
76.054	423
76.104	393
76.154	366
76.204	343
76.254	320
76.304	312
76.355	305
76.405	300
76.455	311
76.505	326
76.555	343
76.605	366
76.656	381
76.706	422
76.756	451
76.807	475
76.857	507
76.908	523
76.958	544
77.008	554
77.058	544
77.108	557
77.158	547
77.209	527
77.259	512
77.309	489
77.359	459
77.409	430
77.459	392
77.510	373
77.560	349
77.610	325
77.660	316
77.711	310
77.762	306
77.812	311
77.862	316
77.912	340
77.962	362
78.012	384
78.063	418
78.113	443
78.163	475
78.213	501
78.263	511
78.313	541
78.364	550
78.414	554
78.464	557
78.514	536
78.564	536
78.616	515
78.666	480
78.716	465
78.766	435
78.816	402
78.866	379
78.917	359
78.967	333
79.017	319
79.067	304
79.117	306
79.167	311
79.218	316
79.268	336
79.318	363
79.368	382
79.418	411
79.469	429
79.520	469
79.570	494
79.620	517
79.670	538
79.720	530
79.771	556
79.821	557
79.871	537
79.921	538
79.971	517
80.022	494
80.072	471
80.122	435
80.172	411
80.222	384
80.272	352
80.323	337
80.374	321
80.424	306
80.474	307
80.524	319
80.574	317
80.625	333
80.675	346
80.725	379
80.775	406
80.825	432
80.876	464
80.926	475
80.976	515
81.026	534
81.076	538
81.126	556
81.177	554
81.227	553
81.278	542
81.328	507
81.378	501
81.428	474
81.479	438
81.529	417
81.579	387
81.629	358
81.679	338
81.730	315
81.780	310
81.830	306
81.880	301
81.930	315
81.980	330
82.031	348
82.081	374
82.131	390
82.182	431
82.232	460
82.283	480
82.333	513
82.383	530
82.433	547
82.483	556
82.533	537
82.584	556
82.634	544
82.684	520
82.734	506
82.784	476
82.834	450
82.885	421
82.935	381
82.985	364
83.035	341
83.086	316
83.137	311
83.187	305
83.237	304
83.287	312
83.337	320
83.387	344
83.438	369
83.488	390
83.538	427
83.588	453
83.638	484
83.688	510
83.739	517
83.789	548
83.839	556
83.889	554
83.939	559
83.991	543
84.041	531
84.091	510
84.141	472
84.191	456
84.241	426
84.292	390
84.342	368
84.392	345
84.442	324
84.492	312
84.542	298
84.593	303
84.643	310
84.693	317
84.743	341
84.793	365
84.844	392
84.895	422
84.945	441
84.995	481
85.045	506
85.095	526
85.146	547
85.196	548
85.246	562
85.296	560
85.346	536
85.396	537
85.447	514
85.497	486
85.547	463
85.597	428
85.647	401
85.698	373
85.748	340
85.799	327
85.849	314
85.899	300
85.949	302
86.000	319
86.050	319
86.100	337
86.150	352
86.200	386
86.251	414
86.301	443
86.351	475
86.401	488
86.451	526
86.501	544
86.552	543
86.602	562
86.652	558
86.703	552
86.753	540
86.803	504
86.854	494
86.904	468
86.954	426
87.004	406
87.054	376
87.105	348
87.155	331
87.205	319
87.255	305
87.305	303
87.355	301
87.406	315
87.456	333
87.506	352
87.556	381
87.607	399
87.657	440
87.708	469
87.758	488
87.808	523
87.858	538
87.908	554
87.959	562
88.009	538
88.059	557
88.109	543
88.159	513
88.209	500
88.260	470
88.310	440
88.360	411
88.410	376
88.460	355
88.511	334
88.562	309
88.612	307
88.662	303
88.712	302
88.762	313
88.813	321
88.863	350
88.913	376
88.963	398
89.013	435
89.063	462
89.114	493
89.164	519
89.214	519
89.264	553
89.314	560
89.364	556
89.416	558
89.466	542
89.516	527
89.566	505
89.616	464
89.667	447
89.717	416
89.767	380
89.817	360
89.867	337
89.917	319
89.968	308
90.018	297
90.068	302
90.118	311
90.168	320
90.219	346
90.269	370
90.320	399
90.370	430
90.420	448
90.470	489
90.521	514
90.571	529
90.621	550
90.671	553
90.721	561
90.771	559
90.822	528
90.872	532
90.922	508
90.972	477
91.022	454
91.073	421
91.123	393
91.174	367
91.224	334
91.274	323
91.324	311
91.375	300
91.425	302
91.475	311
91.525	322
91.575	342
91.625	358
91.676	394
91.726	423
91.776	449
