#Creator: pendulumdriveEventBuffer
#Creation time: Mon Mar 25 09:38:23 2019
#Time	Pos
#[s]	[au]
0.050	483
0.101	463
0.152	430
0.202	394
0.252	369
0.302	345
0.352	323
0.403	309
0.453	298
0.503	301
0.553	308
0.603	316
0.653	341
0.704	367
0.754	397
0.804	431
0.854	453
0.904	494
0.955	521
1.005	542
1.056	564
1.106	568
1.156	579
1.206	578
1.257	552
1.307	550
1.357	526
1.407	495
1.457	468
1.507	431
1.558	402
1.608	372
1.658	340
1.708	324
1.758	311
1.809	296
1.859	299
1.909	309
1.960	319
2.010	338
2.060	358
2.111	395
2.161	427
2.211	458
2.261	492
2.311	513
2.361	545
2.412	563
2.462	563
2.512	581
2.562	577
2.612	569
2.663	555
2.713	513
2.763	503
2.813	472
2.864	427
2.914	405
2.965	375
3.015	344
3.065	325
3.115	319
3.165	300
3.216	298
3.266	298
3.316	315
3.366	336
3.416	357
3.466	391
3.517	415
3.567	458
3.617	489
3.667	510
3.717	545
3.768	561
3.819	575
3.869	583
3.919	560
3.969	573
4.019	555
4.070	524
4.120	507
4.170	473
4.220	440
4.270	408
4.320	369
4.371	348
4.421	326
4.471	305
4.521	300
4.571	297
4.621	298
4.673	314
4.723	327
4.773	357
4.823	387
4.873	413
4.924	455
4.974	484
5.024	516
5.074	543
5.124	546
5.174	575
5.225	582
5.275	573
5.325	575
5.375	554
5.425	537
5.475	510
5.526	467
5.577	445
5.627	412
5.677	373
5.727	353
5.778	329
5.828	312
5.878	302
5.928	294
5.978	300
6.028	312
6.079	325
6.129	354
6.179	383
6.229	416
6.279	450
6.329	470
6.380	512
6.430	537
6.481	551
6.531	574
6.581	576
6.632	582
6.682	576
6.732	546
6.782	540
6.832	513
6.882	477
6.933	450
6.983	416
7.033	386
7.083	358
7.133	329
7.184	315
7.234	305
7.284	296
7.334	301
7.385	313
7.435	327
7.486	351
7.536	370
7.586	410
7.636	444
7.686	473
7.736	506
7.787	527
7.837	553
7.887	568
7.937	565
7.987	580
8.038	573
8.088	558
8.138	542
8.188	509
8.238	488
8.289	456
8.340	416
8.390	392
8.440	363
8.490	336
8.540	320
8.590	311
8.641	301
8.691	302
8.741	304
8.791	326
8.841	349
8.892	370
8.942	405
8.992	434
9.042	469
9.092	500
9.142	517
9.194	550
9.244	563
9.294	572
9.344	578
9.394	551
9.445	563
9.495	544
9.545	507
9.595	492
9.645	460
9.695	424
9.746	397
9.796	372
9.846	342
9.896	323
9.946	306
9.996	303
10.047	303
10.098	304
10.148	325
10.198	351
10.248	370
10.299	401
10.349	426
10.399	465
10.449	492
10.499	521
10.549	546
10.600	544
10.650	572
10.700	576
10.750	564
10.800	564
10.850	544
10.901	523
10.951	496
11.002	455
11.052	432
11.102	402
11.153	367
11.203	346
11.253	327
11.303	308
11.353	306
11.403	301
11.454	309
11.504	323
11.554	337
11.604	368
11.654	397
11.704	428
11.755	462
11.805	478
11.856	519
11.906	542
11.956	550
12.007	571
12.057	572
12.107	575
12.157	566
12.207	533
12.257	526
12.308	500
12.358	463
12.408	438
12.458	406
12.508	375
12.558	351
12.609	326
12.659	315
12.709	307
12.760	300
12.810	309
12.861	323
12.911	340
12.961	364
13.011	385
13.061	425
13.111	457
13.162	480
13.212	515
13.262	535
13.312	557
13.362	569
13.413	559
13.463	575
13.513	566
13.563	545
13.613	530
13.664	501
13.715	474
13.765	442
13.815	402
13.865	380
13.915	354
13.965	328
14.016	316
14.066	310
14.116	304
14.166	308
14.216	314
14.267	338
14.317	361
14.367	384
14.417	421
14.467	450
14.517	483
14.569	511
14.619	523
14.669	555
14.719	566
14.769	571
14.819	575
14.870	560
14.920	552
14.970	533
15.020	495
15.070	478
15.121	446
15.171	409
15.221	385
15.271	359
15.321	335
15.371	319
15.422	305
15.473	305
15.523	308
15.573	312
15.623	335
15.673	359
15.724	384
15.774	415
15.824	439
15.874	478
15.924	505
15.975	529
16.025	553
16.075	556
16.125	573
16.175	575
16.225	556
16.276	556
16.326	534
16.377	508
16.427	483
16.477	447
16.528	420
16.578	391
16.628	356
16.678	340
16.728	323
16.778	308
16.829	305
16.879	325
16.929	316
16.979	333
17.029	348
17.079	380
17.130	409
17.180	439
17.230	473
17.281	490
17.331	527
17.382	548
17.432	551
17.482	572
17.532	569
17.582	568
17.632	558
17.683	518
17.733	515
17.783	488
17.833	449
17.883	426
17.933	395
17.984	363
18.034	344
18.084	321
18.134	314
18.185	308
18.236	302
18.286	315
18.336	331
18.386	346
18.436	376
18.486	396
18.537	435
18.587	466
18.637	487
18.687	522
18.737	540
18.787	559
18.838	569
18.888	551
18.938	569
18.988	558
19.038	534
19.090	520
19.140	491
19.190	461
19.240	432
19.290	393
19.340	372
19.391	349
19.441	325
19.491	316
19.541	310
19.591	306
19.641	315
19.692	325
19.742	347
19.792	371
19.842	394
19.892	431
19.943	459
19.994	490
20.044	517
20.094	524
20.144	556
20.194	566
20.245	564
20.295	570
20.345	556
20.395	543
20.445	523
20.496	485
20.546	468
20.596	437
20.646	402
20.696	379
20.746	355
20.797	334
20.848	320
20.898	311
20.948	309
20.998	315
21.048	322
21.099	344
21.149	367
21.199	394
21.249	424
21.299	442
21.350	484
21.400	510
21.450	528
21.500	552
21.550	557
21.600	569
21.651	569
21.701	544
21.752	547
21.802	525
21.852	497
21.902	474
21.953	441
22.003	414
22.053	386
22.103	352
22.153	339
22.204	323
22.254	310
22.304	310
22.354	317
22.404	324
22.454	342
22.505	357
22.555	390
22.605	419
22.656	444
22.706	479
22.757	500
22.807	529
22.857	548
22.907	548
22.957	568
23.007	566
23.058	559
23.108	549
23.158	521
23.208	506
23.258	479
23.308	440
23.359	418
23.409	389
23.459	358
23.509	341
23.560	354
23.611	315
23.661	311
23.711	308
23.761	322
23.811	338
23.861	355
23.912	385
23.962	413
24.012	445
24.062	475
24.112	490
24.162	527
24.213	543
24.263	559
24.313	568
24.363	550
24.413	564
24.465	552
24.515	522
24.565	511
24.615	481
24.665	450
24.715	423
24.766	393
24.816	367
24.866	344
24.916	321
24.966	316
25.016	311
25.067	304
25.117	319
25.167	331
25.217	355
25.267	381
25.318	402
25.369	440
25.419	469
25.469	496
25.519	524
25.569	528
25.620	559
25.670	567
25.720	559
25.770	567
25.820	551
25.870	537
25.921	514
25.971	473
26.021	458
26.071	426
26.121	391
26.172	368
26.222	346
26.273	324
26.323	315
26.373	305
26.423	309
26.474	317
26.524	324
26.574	351
26.624	376
26.674	404
26.725	437
26.775	456
26.825	496
26.875	522
26.925	537
26.975	559
27.026	564
27.076	572
27.126	570
27.177	544
27.227	541
27.277	518
27.328	485
27.378	463
27.428	429
27.478	400
27.528	372
27.579	341
27.629	327
27.679	315
27.729	304
27.779	307
27.829	316
27.880	327
27.930	348
27.980	366
28.030	401
28.081	432
28.131	458
28.182	493
28.232	514
28.282	542
28.332	559
28.382	556
28.433	574
28.483	571
28.533	558
28.583	546
28.633	516
28.683	495
28.734	467
28.784	425
28.834	403
28.884	374
28.934	344
28.985	328
29.036	317
29.086	307
29.136	305
29.186	305
29.236	323
29.287	344
29.337	364
29.387	397
29.437	426
29.487	460
29.537	490
29.588	505
29.638	543
29.688	558
29.738	567
29.788	576
29.838	562
29.890	565
29.940	549
29.990	515
30.040	500
30.090	469
30.141	433
30.191	406
30.241	387
30.291	350
30.341	329
30.391	310
30.442	304
30.492	304
30.542	304
30.592	320
30.642	349
30.693	363
30.743	392
30.794	417
30.844	457
30.894	487
30.944	515
30.995	542
31.045	538
31.095	571
31.145	578
31.195	565
31.245	569
31.296	550
31.346	529
31.396	504
31.446	463
31.496	440
31.547	409
31.597	372
31.648	350
31.698	329
31.748	308
31.798	303
31.849	311
31.899	304
31.949	317
31.999	330
32.049	360
32.099	390
32.150	420
32.200	456
32.250	475
32.300	515
32.350	541
32.401	551
32.451	573
32.501	576
32.552	579
32.602	572
32.652	532
32.703	534
32.753	508
32.803	469
32.853	443
32.903	409
32.953	377
33.004	351
33.054	323
33.104	311
33.154	302
33.204	292
33.255	301
33.305	315
33.355	330
33.405	357
33.456	376
33.506	420
33.557	453
33.607	478
33.657	516
33.707	538
33.757	562
33.808	575
33.858	560
33.908	583
33.958	574
34.008	553
34.058	538
34.109	507
34.159	478
34.209	445
34.259	403
34.309	380
34.360	351
34.411	322
34.461	310
34.511	302
34.561	296
34.611	299
34.662	306
34.712	329
34.762	354
34.812	380
34.862	418
34.912	449
34.963	484
35.013	515
35.063	529
35.113	563
35.163	575
35.213	579
35.265	585
35.315	571
35.365	562
35.415	540
35.465	499
35.516	481
35.566	447
35.616	408
35.666	382
35.716	353
35.766	327
35.817	310
35.867	293
35.917	294
35.967	297
36.017	304
36.067	326
36.118	351
36.169	382
36.219	416
36.269	441
36.319	483
36.370	513
36.420	538
36.470	564
36.520	565
36.570	585
36.620	586
36.671	566
36.721	566
36.771	541
36.821	513
36.871	484
36.921	445
36.972	415
37.022	383
37.073	346
37.123	326
37.173	309
37.224	292
37.274	292
37.324	314
37.374	305
37.424	324
37.474	341
37.525	379
37.575	413
37.625	446
37.675	482
37.725	501
37.776	541
37.826	563
37.876	567
37.926	587
37.977	585
38.027	582
38.078	568
38.128	526
38.178	518
38.228	485
38.278	443
38.328	416
38.379	382
38.429	348
38.479	327
38.529	311
38.579	295
38.630	291
38.680	288
38.730	303
38.780	323
38.830	340
38.881	379
38.932	403
38.982	448
39.032	482
39.082	506
39.132	542
39.182	562
39.233	581
39.283	589
39.333	567
39.383	585
39.433	568
39.484	539
39.534	519
39.584	483
39.634	450
39.684	416
39.734	376
39.786	352
39.836	326
39.886	302
39.936	294
39.986	291
40.037	288
40.087	302
40.137	313
40.187	345
40.237	378
40.287	405
40.338	447
40.388	478
40.438	513
40.488	543
40.538	551
40.588	581
40.639	589
40.690	584
40.740	586
40.790	566
40.840	548
40.891	520
40.941	474
40.991	451
41.041	417
41.091	378
41.141	352
41.192	327
41.242	305
41.292	293
41.342	282
41.392	288
41.442	300
41.493	312
41.543	344
41.594	377
41.644	412
41.694	446
41.745	469
41.795	514
41.845	541
41.895	560
41.945	583
41.995	584
42.046	593
42.096	587
42.146	553
42.196	550
42.246	519
42.296	482
42.347	453
42.397	415
42.448	382
42.498	351
42.548	320
42.599	304
42.649	291
42.699	280
42.749	287
42.799	301
42.849	316
42.900	343
42.950	368
43.000	410
43.050	446
43.100	477
43.150	514
43.201	536
43.251	567
43.301	584
43.352	575
43.402	595
43.453	587
43.503	570
43.553	552
43.603	515
43.653	489
43.703	454
43.754	409
43.804	383
43.854	351
43.904	320
43.954	302
44.005	298
44.055	283
44.105	285
44.155	292
44.205	315
44.256	342
44.307	372
44.357	410
44.407	443
44.457	481
44.507	515
44.557	534
44.608	570
44.658	584
44.708	594
44.758	598
44.808	566
44.859	576
44.909	553
44.959	509
45.009	488
45.059	452
45.109	414
45.161	382
45.211	357
45.261	320
45.311	300
45.361	284
45.411	281
45.462	284
45.512	289
45.562	313
45.612	347
45.662	374
45.713	410
45.763	437
45.813	481
45.863	513
45.913	544
45.963	572
46.014	568
46.065	597
46.115	598
46.165	582
46.215	578
46.265	552
46.316	522
46.366	489
46.416	442
46.466	416
46.516	381
46.567	342
46.617	319
46.667	302
46.717	282
46.767	279
46.817	278
46.868	291
46.918	312
46.969	332
47.019	374
47.069	409
47.120	445
47.170	482
47.220	503
47.270	547
47.320	571
47.370	581
47.421	599
47.471	596
47.521	595
47.571	580
47.621	535
47.671	523
47.722	489
47.772	448
47.822	417
47.873	380
47.923	346
47.974	319
48.024	292
48.074	283
48.124	279
48.174	274
48.224	290
48.275	311
48.325	339
48.375	373
48.425	400
48.475	445
48.525	480
48.576	511
48.626	548
48.676	567
48.726	590
48.777	600
48.828	585
48.878	596
48.928	579
48.978	551
49.028	525
49.078	486
49.129	454
49.179	417
49.229	375
49.279	347
49.329	318
49.379	292
49.430	283
49.480	279
49.530	278
49.580	289
49.630	304
49.682	337
49.732	372
49.782	402
49.832	445
49.882	476
49.932	516
49.983	548
50.033	560
50.083	591
50.133	599
50.183	599
50.233	597
50.284	572
50.334	558
50.384	525
50.434	481
50.484	456
50.535	417
50.586	376
50.636	347
50.686	319
50.736	295
50.786	282
50.837	272
50.887	276
50.937	288
50.987	304
51.037	336
51.088	371
51.138	406
51.188	443
51.238	471
51.288	516
51.338	546
51.389	571
51.440	591
51.490	584
51.540	604
51.590	599
51.640	571
51.691	560
51.741	525
51.791	490
51.841	457
51.891	417
51.942	382
51.992	348
52.042	314
52.092	296
52.142	282
52.192	269
52.243	277
52.293	303
52.344	306
52.394	335
52.444	363
52.494	406
52.545	440
52.595	477
52.645	515
52.695	530
52.745	574
52.796	590
52.846	591
52.896	603
52.946	594
52.996	583
53.046	561
53.097	510
53.147	494
53.197	458
53.248	411
53.298	383
53.349	349
53.399	313
53.449	296
53.499	279
53.549	274
53.599	277
53.650	280
53.700	305
53.750	336
53.800	365
53.850	403
53.900	431
53.951	478
54.001	514
54.051	539
54.101	573
54.152	587
54.203	603
54.253	605
54.303	577
54.353	585
54.403	560
54.453	519
54.504	494
54.554	456
54.604	420
54.654	383
54.704	342
54.754	318
54.805	296
54.855	276
54.905	273
54.955	277
55.005	284
55.057	305
55.107	326
55.157	368
55.207	404
55.257	434
55.307	479
55.358	512
55.408	547
55.458	575
55.508	575
55.558	603
55.608	605
55.659	592
55.709	586
55.759	556
55.809	528
55.859	495
55.910	444
55.961	419
56.011	382
56.061	343
56.111	316
56.161	295
56.212	278
56.262	272
56.312	269
56.362	283
56.412	304
56.462	328
56.513	368
56.563	403
56.613	442
56.663	480
56.713	505
56.764	549
56.814	574
56.865	590
56.915	605
56.965	597
57.015	602
57.066	587
57.116	544
57.166	528
57.216	493
57.266	453
57.317	418
57.367	381
57.417	346
57.467	315
57.517	288
57.567	276
57.618	271
57.668	266
57.718	283
57.769	307
57.819	334
57.869	368
57.920	397
57.970	444
58.020	481
58.070	514
58.120	552
58.171	563
58.221	596
58.271	606
58.321	592
58.371	604
58.421	584
58.472	561
58.522	528
58.572	481
58.622	456
58.673	417
58.723	372
58.774	343
58.824	314
58.874	284
58.924	274
58.974	287
59.025	270
59.075	282
59.125	297
59.175	334
59.225	367
59.275	402
59.326	444
59.376	470
59.426	519
59.476	552
59.526	567
59.577	599
59.628	605
59.678	611
59.728	605
59.778	564
59.828	562
59.879	527
59.929	484
59.979	456
60.029	415
60.079	376
60.129	342
60.180	307
60.230	287
60.280	274
60.330	264
60.380	268
60.430	282
60.482	296
60.532	333
60.582	360
60.632	405
60.682	444
60.733	475
60.783	520
60.833	550
60.883	581
60.933	601
60.983	584
61.034	612
61.084	605
61.134	580
61.184	562
61.234	520
61.285	493
61.335	457
61.386	406
61.436	377
61.486	341
61.536	304
61.587	285
61.637	272
61.687	261
61.737	267
61.787	275
61.837	299
61.888	334
61.938	362
61.988	405
62.038	444
62.088	484
62.139	522
62.189	539
62.240	583
62.290	601
62.340	602
62.390	615
62.441	602
62.491	590
62.541	563
62.591	510
62.641	493
62.691	455
62.742	409
62.792	376
62.842	339
62.892	307
62.942	283
62.993	266
63.043	262
63.093	266
63.144	272
63.194	300
63.244	335
63.295	368
63.345	406
63.395	437
63.445	485
63.495	522
63.545	553
63.596	585
63.646	596
63.696	613
63.746	616
63.796	593
63.847	592
63.897	562
63.947	522
63.997	493
64.048	451
64.098	412
64.149	373
64.199	331
64.249	305
64.299	282
64.349	260
64.400	261
64.450	269
64.500	276
64.550	299
64.600	326
64.650	368
64.701	406
64.751	442
64.801	487
64.851	517
64.901	559
64.952	587
65.003	590
65.053	616
65.103	614
65.153	607
65.203	592
65.254	549
65.304	527
65.354	491
65.404	442
65.454	411
65.504	371
65.555	330
65.605	303
65.655	295
65.705	264
65.755	259
65.805	262
65.857	273
65.907	300
65.957	329
66.007	369
66.057	411
66.108	449
66.158	488
66.208	518
66.258	563
66.308	585
66.358	609
66.409	618
66.459	592
66.509	610
66.559	591
66.609	551
66.659	527
66.710	489
66.761	448
66.811	409
66.861	363
66.911	332
66.962	301
67.012	272
67.062	262
67.112	259
67.162	256
67.212	274
67.263	294
67.313	335
67.363	370
67.413	404
67.463	452
67.513	489
67.564	531
67.614	565
67.665	575
67.715	611
67.765	618
67.816	610
67.866	612
67.916	587
67.966	561
68.016	525
68.066	476
68.117	448
68.167	406
68.217	361
68.267	328
68.317	297
68.368	272
68.418	259
68.468	252
68.518	258
68.569	274
68.619	296
68.670	336
68.720	371
68.770	411
68.820	454
68.870	482
68.920	534
68.971	567
69.021	587
69.071	614
69.121	614
69.171	620
69.222	613
69.272	575
69.322	558
69.372	523
69.422	480
69.473	444
69.524	402
69.574	361
69.624	324
69.674	289
69.724	269
69.774	257
69.825	248
69.875	257
69.925	277
69.975	300
70.025	337
70.076	366
70.126	414
70.176	456
70.226	492
70.276	537
70.326	563
70.378	598
70.428	616
70.478	603
70.528	623
70.578	611
70.629	586
70.679	557
70.729	514
70.779	484
70.829	442
70.879	393
70.930	359
70.980	322
71.030	286
71.080	267
71.130	261
71.180	251
71.231	256
71.282	268
71.332	301
71.382	337
71.432	369
71.483	415
71.533	455
71.583	499
71.633	540
71.683	562
71.733	601
71.784	616
71.834	623
71.884	624
71.934	594
71.984	591
72.034	556
72.085	508
72.135	483
72.186	441
72.236	394
72.286	357
72.337	337
72.387	287
72.437	264
72.487	248
72.537	249
72.587	255
72.638	266
72.688	303
72.738	347
72.788	374
72.838	418
72.888	451
72.939	501
72.989	539
73.040	574
73.090	603
73.140	590
73.191	627
73.241	625
73.291	602
73.341	592
73.391	553
73.441	519
73.492	483
73.542	431
73.592	396
73.642	355
73.692	312
73.742	285
73.793	263
73.843	241
73.893	247
73.944	255
73.994	270
74.045	303
74.095	333
74.145	376
74.195	417
74.245	457
74.295	503
74.346	526
74.396	576
74.446	603
74.496	610
74.546	627
74.597	620
74.647	615
74.697	592
74.747	533
74.797	520
74.848	481
74.899	429
74.949	395
74.999	355
75.049	312
75.099	284
75.149	260
75.200	248
75.250	247
75.300	248
75.350	271
75.400	304
75.451	336
75.501	377
75.551	406
75.601	462
75.651	503
75.701	537
75.753	579
75.803	600
75.853	622
75.903	628
75.953	605
76.003	615
76.054	590
76.104	546
76.154	520
76.204	477
76.254	436
76.305	393
76.355	346
76.405	313
76.455	283
76.505	256
76.555	248
76.606	249
76.657	252
76.707	270
76.757	298
76.807	338
76.857	376
76.908	412
76.958	464
77.008	500
77.058	545
77.108	580
77.159	591
77.209	623
77.259	627
77.309	621
77.359	616
77.409	583
77.460	553
77.510	518
77.561	467
77.611	435
77.661	392
77.712	346
77.762	311
77.812	283
77.862	257
77.912	247
77.962	241
78.013	251
78.063	271
78.113	298
78.163	339
78.213	378
78.263	421
78.314	464
78.364	495
78.414	547
78.465	579
78.515	603
78.566	624
78.616	618
78.666	627
78.716	615
78.766	575
78.816	553
78.867	517
78.917	475
78.967	434
79.017	391
79.067	349
79.117	311
79.168	276
79.218	256
79.268	247
79.318	240
79.369	252
79.420	301
79.470	304
79.520	340
79.570	369
79.620	421
79.670	463
79.721	505
79.771	548
79.821	560
79.871	609
79.921	624
79.971	617
80.022	627
80.072	611
80.122	590
80.172	553
80.222	501
80.274	477
80.324	433
80.374	384
80.424	347
80.474	309
80.524	273
80.575	256
80.625	255
80.675	242
80.725	251
80.775	266
80.825	304
80.876	340
80.926	373
80.976	423
81.026	449
81.076	507
81.127	548
81.178	569
81.228	609
81.278	620
81.328	630
81.378	628
81.429	594
81.479	590
81.529	551
81.579	507
81.629	477
81.680	430
81.730	386
81.780	347
81.830	306
81.880	277
81.930	256
81.981	240
82.032	243
82.082	253
82.132	266
82.182	305
82.232	332
82.283	379
82.333	422
82.383	457
82.433	508
82.483	545
82.534	583
82.584	608
82.634	605
82.684	630
82.734	626
82.784	605
82.835	588
82.885	548
82.936	515
82.986	476
83.036	421
83.086	389
83.137	347
83.187	304
83.237	277
83.287	258
83.337	244
83.388	243
83.438	249
83.488	268
83.538	305
83.588	336
83.638	379
83.689	421
83.739	465
83.789	508
83.840	534
83.890	582
83.941	606
83.991	615
84.041	630
84.091	620
84.141	613
84.191	588
84.242	537
84.292	515
84.342	475
84.392	426
84.442	388
84.492	347
84.543	306
84.593	277
84.643	252
84.693	243
84.744	244
84.795	248
84.845	269
84.895	307
84.945	340
84.995	379
85.045	414
85.096	466
85.146	507
85.196	544
85.246	583
85.296	597
85.346	623
85.397	630
85.447	607
85.497	614
85.547	584
85.597	547
85.649	516
85.699	469
85.749	430
85.799	387
85.849	339
85.899	307
85.950	278
86.000	250
86.050	244
86.100	255
86.150	250
86.200	271
86.251	300
86.301	340
86.351	378
86.401	419
86.451	465
86.502	491
86.553	548
86.603	582
86.653	595
86.703	624
86.753	626
86.804	625
86.854	613
86.904	555
86.954	549
87.004	514
87.054	464
87.105	430
87.155	386
87.205	342
87.255	308
87.305	287
87.356	255
87.406	246
87.457	240
87.507	250
87.557	271
87.607	300
87.658	340
87.708	379
87.758	421
87.808	465
87.858	497
87.909	547
87.959	577
88.009	606
88.059	622
88.109	600
88.159	625
88.210	611
88.260	574
88.310	550
88.361	512
88.411	475
88.461	432
88.512	378
88.562	347
88.612	310
88.662	274
88.712	257
88.763	247
88.813	240
88.863	251
88.913	268
88.963	304
89.013	339
89.064	371
89.114	420
89.164	461
89.214	504
89.265	545
89.315	561
89.366	605
89.416	619
89.466	617
89.516	625
89.566	606
89.617	587
89.667	551
89.717	499
89.767	477
89.817	433
89.867	384
89.918	350
89.968	313
90.018	280
90.068	259
90.118	245
90.169	245
90.220	253
90.270	264
90.320	303
90.370	339
90.420	376
90.471	419
90.521	449
90.571	502
90.621	541
90.671	569
90.721	601
90.772	610
90.822	623
90.872	623
90.922	593
90.972	588
91.022	549
91.074	510
91.124	478
91.174	432
91.224	392
91.274	352
91.325	310
91.375	284
91.425	263
91.475	246
91.525	248
91.575	255
91.626	270
91.676	302
91.726	330
91.776	374
