#Creator: pendulumdriveEventBuffer
#Creation time: Mon Mar 25 09:38:23 2019
#Time	Pos
#[s]	[au]
0.050	497
0.100	472
0.151	449
0.201	425
0.252	403
0.302	385
0.352	374
0.402	365
0.452	364
0.502	366
0.553	375
0.603	389
0.653	407
0.703	430
0.753	453
0.804	477
0.854	501
0.904	522
0.954	541
1.005	556
1.055	565
1.106	570
1.156	570
1.206	563
1.256	550
1.306	534
1.356	513
1.407	491
1.457	467
1.507	442
1.557	420
1.607	401
1.658	384
1.708	372
1.758	366
1.808	364
1.858	370
1.909	379
1.960	395
2.010	413
2.060	434
2.110	459
2.160	482
2.210	505
2.261	524
2.311	543
2.361	557
2.411	564
2.461	567
2.512	565
2.562	557
2.612	544
2.662	527
2.712	507
2.762	485
2.814	462
2.864	439
2.914	417
2.964	399
3.014	385
3.065	375
3.115	370
3.165	370
3.215	376
3.265	386
3.315	401
3.366	420
3.416	441
3.466	464
3.516	486
3.566	507
3.616	527
3.667	544
3.718	554
3.768	560
3.818	562
3.868	558
3.919	550
3.969	536
4.019	519
4.069	500
4.119	477
4.169	456
4.220	435
4.270	415
4.320	399
4.370	386
4.420	378
4.470	374
4.521	376
4.571	384
4.622	395
4.672	410
4.722	429
4.773	450
4.823	471
4.873	492
4.923	512
4.973	528
5.023	542
5.074	551
5.124	556
5.174	556
5.224	551
5.274	541
5.324	527
5.375	511
5.425	491
5.475	471
5.526	450
5.576	429
5.627	412
5.677	398
5.727	387
5.777	381
5.827	381
5.877	383
5.928	392
5.978	404
6.028	420
6.078	438
6.128	458
6.178	477
6.229	497
6.279	515
6.329	530
6.379	541
6.430	549
6.481	551
6.531	550
6.581	543
6.631	532
6.681	518
6.731	500
6.782	482
6.832	462
6.882	443
6.932	425
6.982	410
7.033	398
7.083	389
7.133	385
7.183	385
7.233	391
7.283	400
7.335	413
7.385	430
7.435	447
7.485	466
7.535	485
7.585	504
7.636	518
7.686	532
7.736	541
7.786	546
7.836	547
7.887	543
7.937	534
7.987	524
8.037	508
8.087	492
8.137	473
8.188	453
8.239	436
8.289	419
8.339	406
8.389	396
8.439	390
8.490	387
8.540	390
8.590	398
8.640	409
8.690	423
8.741	439
8.791	457
8.841	476
8.891	491
8.941	510
8.991	523
9.042	535
9.092	541
9.143	545
9.193	544
9.243	538
9.294	529
9.344	516
9.394	500
9.444	483
9.494	464
9.544	447
9.595	430
9.645	415
9.695	404
9.745	396
9.795	391
9.845	391
9.896	396
9.946	404
9.996	416
10.047	430
10.097	447
10.148	464
10.198	482
10.248	498
10.298	514
10.348	527
10.398	537
10.449	542
10.499	542
10.549	541
10.599	533
10.649	522
10.699	508
10.750	493
10.800	476
10.850	456
10.900	441
10.951	425
11.002	412
11.052	401
11.102	395
11.152	393
11.202	394
11.252	400
11.303	410
11.353	423
11.403	437
11.453	454
11.503	472
11.553	489
11.604	505
11.654	519
11.704	529
11.754	537
11.804	541
11.856	540
11.906	537
11.956	528
12.006	516
12.056	501
12.106	486
12.157	468
12.207	452
12.257	434
12.307	420
12.357	409
12.407	400
12.458	395
12.508	394
12.558	396
12.608	405
12.658	416
12.709	429
12.760	444
12.810	461
12.860	478
12.910	496
12.960	510
13.011	523
13.061	532
13.111	537
13.161	539
13.211	538
13.262	532
13.312	523
13.362	511
13.412	496
13.462	479
13.512	463
13.563	445
13.614	430
13.664	417
13.714	406
13.764	400
13.814	396
13.865	396
13.915	401
13.965	409
14.015	420
14.065	435
14.116	450
14.166	466
14.216	483
14.266	499
14.316	513
14.366	524
14.417	533
14.467	537
14.518	537
14.568	535
14.618	529
14.668	519
14.719	505
14.769	490
14.819	474
14.869	458
14.919	440
14.970	426
15.020	413
15.070	405
15.120	398
15.170	396
15.220	400
15.271	405
15.321	414
15.371	428
15.422	440
15.472	456
15.522	473
15.573	488
15.623	503
15.673	516
15.723	526
15.773	533
15.824	536
15.874	535
15.924	531
15.974	523
16.024	512
16.074	499
16.125	483
16.175	467
16.225	451
16.275	437
16.326	424
16.377	414
16.427	406
16.477	402
16.527	401
16.577	403
16.627	411
16.678	420
16.728	433
16.778	447
16.828	463
16.878	478
16.928	492
16.979	507
17.029	517
17.079	527
17.129	531
17.179	534
17.231	532
17.281	526
17.331	518
17.381	505
17.431	492
17.481	477
17.532	463
17.582	446
17.632	434
17.682	422
17.732	412
17.782	405
17.833	404
17.883	404
17.933	408
17.983	416
18.033	426
18.084	438
18.135	453
18.185	468
18.235	482
18.285	497
18.335	509
18.386	519
18.436	527
18.486	531
18.536	531
18.586	527
18.636	522
18.687	512
18.737	500
18.787	487
18.837	472
18.887	457
18.938	442
18.988	431
19.039	420
19.089	411
19.139	408
19.189	404
19.240	408
19.290	413
19.340	422
19.390	432
19.440	445
19.490	460
19.541	473
19.591	488
19.641	501
19.691	512
19.741	521
19.792	526
19.842	529
19.892	528
19.943	524
19.993	517
20.043	506
20.094	494
20.144	480
20.194	466
20.244	452
20.294	439
20.345	428
20.395	418
20.445	412
20.495	408
20.545	408
20.595	411
20.646	417
20.696	427
20.746	439
20.796	450
20.847	466
20.897	481
20.948	493
20.998	505
21.048	516
21.098	523
21.148	526
21.199	526
21.249	525
21.299	520
21.349	511
21.399	500
21.449	488
21.500	474
21.550	460
21.600	447
21.650	435
21.701	425
21.751	417
21.802	412
21.852	410
21.902	410
21.952	415
22.002	422
22.053	432
22.103	444
22.153	458
22.203	472
22.253	485
22.303	497
22.354	508
22.404	517
22.454	523
22.504	526
22.554	526
22.606	522
22.656	516
22.706	506
22.756	495
22.806	482
22.856	469
22.907	456
22.957	443
23.007	432
23.057	421
23.107	416
23.157	412
23.208	411
23.258	414
23.308	420
23.358	428
23.408	437
23.458	451
23.510	463
23.560	476
23.610	491
23.660	501
23.710	510
23.761	518
23.811	523
23.861	524
23.911	524
23.961	519
24.011	511
24.062	502
24.112	490
24.162	477
24.212	464
24.262	450
24.313	438
24.363	429
24.414	420
24.464	414
24.514	413
24.564	413
24.615	416
24.665	423
24.715	432
24.765	444
24.815	455
24.865	468
24.916	481
24.966	494
25.016	504
25.066	513
25.116	521
25.167	523
25.217	524
25.267	519
25.318	514
25.368	507
25.418	497
25.469	484
25.519	472
25.569	460
25.619	446
25.669	435
25.719	425
25.770	420
25.820	414
25.870	414
25.920	415
25.970	419
26.021	427
26.071	436
26.121	448
26.171	461
26.222	473
26.272	485
26.323	498
26.373	508
26.423	514
26.473	520
26.523	523
26.574	521
26.624	517
26.674	512
26.724	503
26.774	491
26.824	480
26.875	468
26.925	455
26.975	443
27.025	432
27.075	424
27.126	418
27.177	415
27.227	415
27.277	418
27.327	423
27.377	431
27.428	441
27.478	453
27.528	465
27.578	478
27.628	488
27.678	500
27.729	510
27.779	515
27.829	519
27.879	521
27.929	519
27.979	514
28.031	507
28.081	498
28.131	488
28.181	476
28.231	462
28.282	450
28.332	441
28.382	430
28.432	422
28.482	418
28.532	416
28.583	418
28.633	421
28.683	427
28.733	436
28.783	445
28.833	457
28.884	470
28.935	481
28.985	493
29.035	503
29.085	510
29.136	516
29.186	519
29.236	519
29.286	516
29.336	511
29.386	503
29.437	493
29.487	483
29.537	471
29.587	459
29.637	448
29.687	436
29.738	429
29.788	422
29.839	420
29.889	418
29.939	420
29.990	424
30.040	430
30.090	440
30.140	452
30.190	463
30.240	474
30.291	485
30.341	496
30.391	504
30.441	512
30.491	517
30.542	518
30.592	517
30.642	513
30.692	507
30.743	498
30.793	489
30.844	479
30.894	468
30.944	455
30.994	445
31.044	434
31.094	428
31.145	423
31.195	420
31.245	420
31.295	423
31.345	428
31.396	436
31.446	445
31.496	456
31.546	466
31.597	478
31.647	488
31.698	498
31.748	506
31.798	512
31.848	516
31.898	515
31.948	514
31.999	509
32.049	502
32.099	495
32.149	485
32.199	473
32.250	462
32.300	450
32.350	441
32.400	433
32.450	427
32.501	422
32.552	421
32.602	422
32.652	427
32.702	432
32.752	440
32.802	449
32.853	459
32.903	471
32.953	483
33.003	493
33.053	502
33.104	508
33.154	513
33.204	515
33.254	515
33.304	511
33.354	507
33.406	499
33.456	490
33.506	480
33.556	469
33.606	458
33.657	448
33.707	439
33.757	431
33.807	426
33.857	423
33.907	422
33.958	425
34.008	429
34.058	436
34.108	445
34.158	454
34.208	464
34.259	475
34.310	486
34.360	495
34.410	504
34.460	509
34.511	513
34.561	514
34.611	512
34.661	507
34.711	504
34.761	495
34.812	485
34.862	475
34.912	465
34.962	454
35.012	446
35.062	436
35.113	430
35.163	425
35.214	424
35.264	424
35.314	427
35.365	431
35.415	441
35.465	450
35.515	459
35.565	469
35.615	480
35.666	489
35.716	497
35.766	504
35.816	509
35.866	513
35.916	512
35.967	510
36.017	506
36.067	499
36.118	491
36.168	481
36.219	470
36.269	461
36.319	451
36.369	441
36.419	435
36.469	429
36.520	425
36.570	426
36.620	426
36.670	430
36.720	435
36.770	444
36.821	453
36.871	462
36.921	473
36.971	483
37.022	492
37.073	499
37.123	505
37.173	510
37.223	511
37.273	512
37.323	509
37.374	502
37.424	494
37.474	487
37.524	477
37.574	468
37.625	457
37.675	448
37.725	440
37.775	433
37.825	428
37.875	426
37.927	426
37.977	428
38.027	433
38.077	440
38.127	448
38.177	457
38.228	467
38.278	477
38.328	485
38.378	495
38.428	502
38.479	506
38.529	509
38.579	510
38.629	509
38.679	505
38.729	499
38.780	492
38.831	482
38.881	474
38.931	464
38.981	454
39.031	444
39.082	437
39.132	431
39.182	428
39.232	427
39.282	428
39.333	430
39.383	436
39.433	443
39.483	450
39.533	461
39.583	469
39.634	479
39.684	488
39.735	497
39.785	503
39.835	507
39.886	510
39.936	508
39.986	507
40.036	502
40.086	496
40.136	488
40.187	479
40.237	470
40.287	460
40.337	451
40.387	443
40.437	436
40.488	432
40.538	428
40.588	428
40.639	430
40.689	434
40.740	440
40.790	445
40.840	455
40.890	465
40.940	475
40.990	483
41.041	491
41.091	498
41.141	502
41.191	507
41.241	508
41.291	507
41.342	503
41.392	499
41.442	492
41.492	484
41.543	475
41.594	466
41.644	457
41.694	449
41.744	442
41.794	436
41.844	430
41.895	429
41.945	429
41.995	432
42.045	437
42.095	442
42.145	451
42.196	459
42.246	467
42.296	477
42.346	486
42.396	493
42.448	500
42.498	504
42.548	507
42.598	507
42.648	505
42.698	502
42.749	495
42.799	489
42.849	480
42.899	472
42.949	462
42.999	453
43.050	446
43.100	440
43.150	436
43.200	431
43.250	431
43.301	431
43.352	434
43.402	439
43.452	447
43.502	454
43.552	463
43.603	471
43.653	480
43.703	488
43.753	494
43.803	500
43.854	504
43.904	505
43.954	505
44.004	502
44.054	499
44.104	493
44.155	485
44.206	477
44.256	468
44.306	458
44.356	450
44.406	444
44.457	438
44.507	434
44.557	432
44.607	431
44.657	434
44.708	438
44.758	443
44.808	450
44.858	458
44.908	466
44.958	475
45.009	483
45.059	491
45.110	496
45.160	501
45.210	505
45.260	504
45.311	504
45.361	501
45.411	496
45.461	488
45.511	482
45.562	473
45.612	465
45.662	455
45.712	448
45.762	442
45.812	436
45.863	434
45.913	432
45.963	433
46.014	436
46.064	440
46.114	446
46.165	453
46.215	462
46.265	470
46.315	478
46.365	486
46.416	493
46.466	498
46.516	501
46.566	503
46.616	503
46.666	501
46.717	499
46.767	493
46.817	485
46.867	478
46.918	470
46.969	462
47.019	454
47.069	447
47.119	440
47.169	437
47.219	434
47.270	433
47.320	436
47.370	438
47.420	443
47.470	449
47.520	457
47.571	465
47.621	472
47.671	480
47.721	489
47.771	493
47.823	499
47.873	502
47.923	503
47.973	502
48.023	500
48.073	496
48.124	489
48.174	483
48.224	475
48.274	466
48.324	459
48.374	452
48.425	445
48.475	440
48.525	437
48.575	434
48.625	435
48.676	437
48.727	440
48.777	446
48.827	452
48.877	459
48.927	467
48.978	475
49.028	483
49.078	490
49.128	495
49.178	499
49.228	502
49.279	502
49.329	501
49.379	498
49.429	493
49.479	486
49.530	479
49.580	471
49.631	464
49.681	457
49.731	449
49.781	443
49.832	439
49.882	435
49.932	435
49.982	435
50.032	438
50.082	443
50.133	448
50.183	456
50.233	464
50.283	471
50.333	478
50.384	485
50.434	491
50.484	496
50.535	500
50.585	501
50.635	501
50.686	498
50.736	494
50.786	489
50.836	484
50.886	476
50.937	469
50.987	461
51.037	454
51.087	447
51.137	443
51.187	439
51.238	436
51.288	437
51.338	438
51.388	441
51.439	446
51.489	451
51.540	458
51.590	466
51.640	473
51.690	481
51.740	487
51.791	492
51.841	497
51.891	499
51.941	500
51.991	499
52.041	497
52.092	493
52.142	487
52.192	480
52.242	473
52.293	466
52.343	458
52.394	452
52.444	447
52.494	442
52.544	439
52.594	437
52.645	438
52.695	440
52.745	444
52.795	448
52.845	454
52.895	461
52.946	469
52.996	475
53.046	483
53.096	489
53.146	494
53.198	498
53.248	499
53.298	499
53.348	498
53.398	494
53.448	490
53.499	483
53.549	477
53.599	470
53.649	463
53.699	456
53.749	450
53.800	445
53.850	441
53.900	439
53.950	438
54.000	438
54.050	442
54.102	446
54.152	451
54.202	457
54.252	464
54.302	472
54.353	479
54.403	486
54.453	490
54.503	495
54.553	498
54.603	498
54.654	498
54.704	496
54.754	491
54.804	487
54.854	480
54.905	474
54.955	468
55.006	461
55.056	454
55.106	448
55.156	444
55.207	441
55.257	439
55.307	439
55.357	442
55.407	443
55.457	447
55.508	454
55.558	460
55.608	468
55.658	474
55.708	481
55.759	486
55.809	491
55.859	495
55.910	497
55.960	498
56.010	497
56.061	494
56.111	490
56.161	485
56.211	478
56.261	472
56.311	466
56.362	458
56.412	452
56.462	448
56.512	443
56.562	441
56.613	439
56.663	441
56.713	443
56.763	446
56.814	451
56.864	458
56.915	463
56.965	470
57.015	477
57.065	483
57.115	489
57.166	493
57.216	495
57.266	496
57.316	496
57.366	494
57.416	492
57.467	488
57.517	482
57.567	476
57.617	468
57.667	462
57.718	456
57.769	451
57.819	446
57.869	443
57.919	441
57.969	441
58.020	441
58.070	445
58.120	448
58.170	454
58.220	460
58.270	466
58.321	472
58.371	479
58.421	484
58.471	489
58.521	493
58.571	494
58.623	496
58.673	495
58.723	493
58.773	490
58.823	485
58.874	479
58.924	474
58.974	466
59.024	460
59.074	455
59.124	448
59.175	445
59.225	443
59.275	442
59.325	442
59.375	443
59.425	446
59.476	451
59.527	456
59.577	462
59.627	468
59.677	475
59.728	481
59.778	486
59.828	490
59.878	493
59.928	495
59.978	495
60.029	494
60.079	491
60.129	487
60.179	481
60.229	477
60.279	470
60.330	464
60.380	458
60.431	453
60.481	448
60.531	445
60.582	442
60.632	442
60.682	443
60.732	445
60.782	448
60.832	453
60.883	458
60.933	464
60.983	470
61.033	477
61.083	482
61.134	488
61.184	491
61.234	494
61.284	494
61.335	493
61.385	492
61.436	488
61.486	485
61.536	479
61.586	473
61.636	467
61.686	463
61.737	457
61.787	451
61.837	448
61.887	444
61.937	444
61.988	443
62.038	445
62.088	448
62.138	451
62.189	456
62.239	461
62.290	467
62.340	473
62.390	479
62.440	484
62.490	488
62.540	491
62.591	493
62.641	493
62.691	492
62.741	490
62.791	486
62.842	482
62.892	477
62.942	472
62.992	465
63.042	460
63.093	455
63.144	449
63.194	446
63.244	444
63.294	443
63.344	444
63.394	446
63.445	448
63.495	454
63.545	458
63.595	463
63.645	470
63.696	475
63.746	480
63.796	486
63.846	487
63.896	492
63.946	492
63.998	493
64.048	492
64.098	487
64.148	484
64.198	481
64.249	476
64.299	470
64.349	463
64.399	458
64.449	453
64.499	450
64.550	447
64.600	444
64.650	445
64.700	445
64.750	448
64.800	452
64.851	455
64.902	461
64.952	466
65.002	472
65.052	477
65.103	482
65.153	486
65.203	489
65.253	491
65.303	492
65.353	491
65.404	490
65.454	487
65.504	482
65.554	477
65.604	472
65.654	466
65.705	461
65.755	455
65.806	452
65.856	449
65.906	446
65.957	445
66.007	446
66.057	446
66.107	450
66.157	453
66.207	458
66.258	463
66.308	468
66.358	474
66.408	479
66.458	485
66.508	488
66.559	491
66.609	491
66.659	491
66.710	490
66.760	487
66.811	484
66.861	480
66.911	475
66.961	470
67.011	465
67.061	460
67.112	455
67.162	451
67.212	448
67.262	447
67.312	446
67.362	447
67.413	448
67.463	452
67.513	456
67.563	460
67.614	466
67.665	470
67.715	476
67.765	480
67.815	485
67.865	487
67.915	489
67.966	491
68.016	490
68.066	489
68.116	486
68.166	483
68.217	478
68.267	473
68.317	467
68.367	463
68.417	458
68.467	454
68.519	451
68.569	447
68.619	447
68.669	447
68.719	448
68.769	451
68.820	453
68.870	457
68.920	462
68.970	467
69.020	472
69.071	477
69.121	482
69.171	485
69.221	488
69.271	489
69.321	489
69.372	489
69.423	487
69.473	484
69.523	480
69.573	476
69.623	471
69.674	467
69.724	462
69.774	456
69.824	453
69.874	451
69.925	447
69.975	447
70.025	448
70.075	449
70.125	452
70.175	456
70.226	460
70.276	465
70.327	470
70.377	473
70.427	479
70.478	482
70.528	486
70.578	488
70.628	488
70.678	489
70.728	488
70.779	486
70.829	482
70.879	478
70.929	474
70.979	469
71.029	464
71.080	459
71.130	456
71.180	453
71.231	450
71.281	448
71.332	448
71.382	449
71.432	451
71.482	454
71.532	458
71.582	462
71.633	466
71.683	471
71.733	476
