#Creator: pendulumdriveEventBuffer
#Creation time: Mon Mar 25 09:38:23 2019
#Time	Pos
#[s]	[au]
0.050	450
0.100	460
0.150	470
0.200	478
0.251	483
0.301	487
0.351	489
0.401	487
0.451	483
0.502	477
0.552	469
0.602	460
0.652	449
0.702	437
0.753	428
0.804	418
0.854	409
0.904	402
0.954	398
1.004	396
1.054	398
1.105	401
1.155	406
1.205	414
1.255	423
1.305	433
1.356	445
1.406	455
1.456	465
1.506	473
1.556	480
1.606	484
1.658	487
1.708	487
1.758	485
1.808	480
1.858	473
1.909	465
1.959	454
2.009	444
2.059	434
2.109	423
2.159	414
2.210	407
2.260	401
2.310	399
2.360	397
2.410	400
2.460	404
2.511	410
2.562	418
2.612	428
2.662	439
2.712	448
2.763	459
2.813	467
2.863	476
2.913	481
2.963	485
3.013	486
3.064	485
3.114	482
3.164	476
3.214	470
3.264	460
3.314	449
3.365	440
3.415	428
3.466	420
3.516	412
3.566	406
3.617	401
3.667	399
3.717	401
3.767	402
3.817	407
3.867	415
3.918	424
3.968	434
4.018	442
4.068	453
4.118	463
4.168	471
4.219	478
4.269	481
4.319	485
4.370	485
4.420	483
4.471	479
4.521	474
4.571	463
4.621	455
4.671	445
4.721	435
4.772	425
4.822	417
4.872	409
4.922	405
4.972	401
5.022	400
5.073	401
5.123	406
5.173	411
5.223	419
5.274	429
5.325	438
5.375	448
5.425	457
5.475	466
5.525	473
5.575	479
5.626	482
5.676	485
5.726	483
5.776	480
5.826	475
5.877	469
5.927	459
5.977	450
6.027	441
6.077	429
6.127	422
6.179	414
6.229	407
6.279	404
6.329	401
6.379	402
6.429	403
6.480	410
6.530	414
6.580	423
6.630	433
6.680	443
6.731	453
6.781	463
6.831	470
6.881	476
6.931	482
6.981	484
7.032	484
7.083	483
7.133	477
7.183	472
7.233	464
7.283	455
7.334	445
7.384	436
7.434	426
7.484	418
7.534	411
7.585	406
7.635	403
7.685	401
7.735	403
7.785	406
7.835	412
7.886	419
7.936	428
7.987	438
8.037	446
8.087	457
8.137	465
8.188	473
8.238	478
8.288	481
8.338	484
8.388	484
8.439	479
8.489	474
8.539	469
8.589	460
8.639	451
8.689	441
8.740	431
8.790	423
8.841	415
8.891	409
8.941	404
8.992	401
9.042	401
9.092	406
9.142	410
9.192	416
9.242	422
9.293	432
9.343	442
9.393	451
9.443	461
9.493	468
9.543	475
9.594	480
9.644	483
9.694	484
9.745	482
9.795	477
9.846	472
9.896	465
9.946	456
9.996	446
10.046	437
10.096	428
10.147	420
10.197	412
10.247	407
10.297	404
10.347	403
10.397	404
10.448	407
10.498	412
10.548	419
10.598	427
10.649	437
10.700	446
10.750	455
10.800	463
10.850	471
10.900	476
10.950	480
11.001	482
11.051	482
11.101	479
11.151	475
11.201	467
11.251	461
11.302	451
11.352	443
11.402	433
11.452	425
11.502	417
11.554	411
11.604	405
11.654	403
11.704	404
11.754	406
11.804	411
11.855	416
11.905	424
11.955	433
12.005	441
12.055	449
12.105	459
12.156	467
12.206	473
12.256	477
12.306	480
12.356	481
12.407	480
12.458	477
12.508	472
12.558	464
12.608	456
12.658	447
12.709	438
12.759	429
12.809	422
12.859	415
12.909	410
12.960	406
13.010	405
13.060	406
13.110	408
13.160	413
13.210	420
13.261	427
13.311	435
13.362	444
13.412	453
13.462	462
13.512	469
13.563	475
13.613	479
13.663	480
13.713	480
13.763	479
13.814	473
13.864	467
13.914	461
13.964	452
14.014	443
14.064	434
14.115	426
14.165	419
14.215	413
14.266	408
14.316	405
14.366	405
14.417	407
14.467	411
14.517	416
14.567	423
14.617	432
14.668	440
14.718	449
14.768	458
14.818	465
14.868	471
14.918	476
14.969	480
15.019	480
15.069	478
15.119	475
15.170	470
15.221	464
15.271	456
15.321	448
15.371	439
15.421	430
15.471	424
15.522	416
15.572	410
15.622	407
15.672	406
15.722	407
15.772	409
15.823	414
15.873	421
15.923	427
15.973	434
16.023	445
16.075	453
16.125	459
16.175	467
16.225	472
16.275	477
16.325	479
16.376	479
16.426	475
16.476	472
16.526	469
16.576	460
16.626	452
16.677	444
16.727	434
16.777	426
16.827	419
16.877	414
16.928	410
16.979	408
17.029	406
17.079	409
17.129	412
17.179	418
17.230	424
17.280	431
17.330	440
17.380	448
17.430	457
17.480	464
17.531	470
17.581	474
17.631	477
17.681	479
17.731	477
17.782	475
17.832	470
17.883	464
17.933	456
17.983	448
18.033	441
18.084	431
18.134	424
18.184	418
18.234	412
18.284	409
18.334	407
18.385	408
18.435	410
18.485	415
18.535	421
18.585	428
18.636	435
18.686	444
18.737	452
18.787	460
18.837	466
18.887	472
18.938	476
18.988	477
19.038	478
19.088	477
19.138	472
19.189	466
19.239	459
19.289	451
19.339	443
19.389	436
19.439	429
19.490	421
19.540	415
19.590	410
19.641	409
19.691	407
19.741	409
19.792	412
19.842	418
19.892	424
19.942	431
19.992	439
20.043	447
20.093	455
20.143	462
20.193	469
20.243	473
20.293	476
20.344	477
20.394	477
20.444	473
20.494	469
20.545	464
20.595	456
20.646	450
20.696	441
20.746	432
20.796	426
20.846	420
20.897	414
20.947	411
20.997	408
21.047	409
21.097	411
21.147	415
21.198	421
21.248	427
21.298	435
21.348	443
21.398	451
21.449	460
21.500	464
21.550	472
21.600	475
21.650	477
21.700	476
21.751	474
21.801	472
21.851	466
21.901	460
21.951	453
22.001	446
22.052	437
22.102	430
22.152	423
22.202	417
22.252	413
22.302	410
22.354	410
22.404	410
22.454	414
22.504	418
22.554	424
22.605	431
22.655	439
22.705	446
22.755	454
22.805	460
22.855	467
22.906	472
22.956	476
23.006	475
23.056	476
23.106	472
23.157	469
23.207	463
23.258	457
23.308	450
23.358	442
23.408	435
23.459	427
23.509	420
23.559	415
23.609	413
23.659	411
23.709	410
23.760	413
23.810	417
23.860	422
23.910	428
23.960	434
24.011	442
24.061	451
24.111	457
24.162	465
24.212	469
24.262	472
24.313	475
24.363	475
24.413	474
24.463	470
24.513	465
24.563	460
24.614	453
24.664	446
24.714	439
24.764	431
24.814	424
24.865	418
24.915	414
24.965	411
25.015	411
25.066	412
25.116	414
25.167	419
25.217	425
25.267	432
25.317	438
25.367	446
25.417	453
25.468	459
25.518	467
25.568	470
25.618	472
25.668	475
25.719	475
25.769	472
25.819	468
25.869	462
25.919	457
25.970	450
26.021	441
26.071	436
26.121	428
26.171	422
26.221	416
26.272	414
26.322	412
26.372	412
26.422	415
26.472	417
26.522	421
26.573	428
26.623	434
26.673	442
26.723	450
26.773	456
26.823	463
26.875	467
26.925	470
26.975	473
27.025	474
27.075	472
27.126	470
27.176	465
27.226	459
27.276	453
27.326	446
27.376	439
27.427	432
27.477	425
27.527	420
27.577	416
27.627	414
27.677	412
27.728	413
27.779	416
27.829	420
27.879	424
27.929	432
27.980	437
28.030	445
28.080	453
28.130	458
28.180	464
28.230	469
28.281	472
28.331	473
28.381	473
28.431	471
28.481	467
28.531	462
28.582	457
28.632	450
28.683	442
28.733	436
28.783	429
28.834	424
28.884	418
28.934	416
28.984	415
29.034	414
29.084	415
29.135	418
29.185	423
29.235	428
29.285	434
29.335	441
29.385	448
29.436	455
29.486	461
29.537	466
29.587	469
29.637	472
29.688	473
29.738	472
29.788	469
29.838	465
29.888	459
29.938	453
29.989	446
30.039	439
30.089	432
30.139	426
30.189	421
30.240	417
30.290	415
30.340	413
30.390	415
30.441	417
30.491	421
30.542	424
30.592	431
30.642	438
30.692	446
30.742	451
30.792	457
30.843	462
30.893	467
30.943	470
30.993	472
31.043	472
31.094	470
31.144	467
31.194	463
31.244	456
31.294	450
31.345	443
31.396	437
31.446	430
31.496	425
31.546	420
31.596	417
31.646	415
31.697	415
31.747	416
31.797	418
31.847	423
31.897	428
31.948	434
31.998	441
32.048	448
32.098	454
32.148	460
32.198	465
32.250	469
32.300	471
32.350	471
32.400	471
32.450	468
32.501	463
32.551	459
32.601	454
32.651	447
32.701	440
32.751	434
32.802	428
32.852	423
32.902	419
32.952	416
33.002	415
33.052	416
33.103	418
33.154	421
33.204	425
33.254	431
33.304	437
33.355	445
33.405	451
33.455	457
33.505	462
33.555	466
33.605	468
33.656	470
33.706	471
33.756	468
33.806	466
33.856	461
33.906	456
33.957	450
34.007	444
34.058	437
34.108	432
34.158	426
34.209	422
34.259	418
34.309	416
34.359	416
34.409	417
34.459	419
34.510	424
34.560	428
34.610	435
34.660	441
34.710	447
34.760	453
34.811	458
34.861	463
34.911	466
34.962	469
35.012	470
35.063	468
35.113	466
35.163	463
35.213	459
35.263	453
35.313	446
35.364	441
35.414	434
35.464	429
35.514	424
35.564	421
35.614	418
35.665	417
35.715	417
35.765	419
35.815	424
35.866	426
35.917	432
35.967	437
36.017	444
36.067	450
36.117	455
36.167	460
36.218	464
36.268	467
36.318	468
36.368	469
36.418	467
36.469	464
36.519	461
36.569	456
36.619	450
36.669	444
36.719	438
36.771	432
36.821	427
36.871	423
36.921	419
36.971	417
37.021	417
37.072	419
37.122	421
37.172	423
37.222	430
37.272	435
37.323	441
37.373	446
37.423	452
37.473	457
37.523	461
37.573	466
37.624	467
37.675	468
37.725	467
37.775	466
37.825	462
37.875	459
37.926	453
37.976	448
38.026	440
38.076	435
38.126	430
38.177	425
38.227	422
38.277	419
38.327	418
38.377	419
38.427	419
38.478	423
38.528	427
38.579	432
38.629	438
38.679	444
38.729	449
38.780	455
38.830	460
38.880	464
38.930	467
38.980	467
39.031	468
39.081	466
39.131	464
39.181	461
39.231	456
39.281	450
39.332	444
39.382	439
39.433	433
39.483	427
39.533	424
39.584	420
39.634	419
39.684	418
39.734	419
39.784	421
39.834	423
39.885	430
39.935	435
39.985	440
40.035	446
40.085	451
40.135	458
40.186	461
40.236	464
40.286	466
40.337	467
40.387	467
40.438	465
40.488	462
40.538	458
40.588	453
40.638	448
40.688	443
40.739	436
40.789	431
40.839	427
40.889	424
40.939	421
40.989	419
41.040	419
41.090	421
41.140	424
41.190	428
41.241	432
41.292	437
41.342	443
41.392	449
41.442	453
41.492	458
41.542	462
41.593	465
41.643	466
41.693	467
41.743	466
41.793	463
41.843	460
41.894	456
41.944	450
41.994	445
42.044	439
42.094	434
42.146	429
42.196	425
42.246	422
42.296	421
42.346	420
42.396	421
42.447	422
42.497	426
42.547	429
42.597	435
42.647	440
42.697	445
42.748	450
42.798	456
42.848	459
42.898	463
42.948	465
42.999	466
43.050	465
43.100	462
43.150	462
43.200	457
43.250	453
43.301	448
43.351	443
43.401	438
43.451	432
43.501	428
43.552	425
43.602	422
43.652	420
43.702	421
43.752	422
43.802	424
43.853	428
43.903	432
43.954	437
44.004	443
44.054	448
44.104	453
44.155	457
44.205	461
44.255	464
44.305	465
44.355	465
44.406	465
44.456	463
44.506	458
44.556	455
44.606	450
44.656	444
44.707	439
44.757	434
44.807	429
44.858	426
44.908	423
44.958	421
45.009	421
45.059	422
45.109	423
45.159	428
45.209	431
45.260	435
45.310	439
45.360	446
45.410	451
45.460	455
45.510	460
45.561	463
45.611	464
45.661	465
45.711	464
45.762	463
45.813	460
45.863	457
45.913	452
45.963	448
46.013	442
46.063	438
46.114	432
46.164	428
46.214	425
46.264	423
46.314	422
46.364	422
46.415	423
46.465	426
46.515	429
46.565	433
46.615	438
46.667	443
46.717	448
46.767	453
46.817	457
46.867	460
46.917	463
46.968	464
47.018	464
47.068	464
47.118	463
47.168	458
47.218	453
47.269	450
47.319	445
47.369	441
47.419	434
47.469	430
47.520	428
47.571	424
47.621	423
47.671	423
47.721	423
47.771	423
47.822	427
47.872	431
47.922	436
47.972	439
48.022	446
48.072	449
48.123	455
48.173	458
48.223	462
48.273	463
48.323	464
48.374	464
48.424	463
48.475	460
48.525	456
48.575	452
48.625	448
48.676	443
48.726	438
48.776	433
48.826	430
48.876	426
48.926	424
48.977	423
49.027	423
49.077	424
49.127	426
49.177	429
49.228	433
49.278	438
49.329	443
49.379	446
49.429	452
49.479	457
49.530	459
49.580	461
49.630	463
49.680	464
49.730	462
49.781	460
49.831	458
49.881	455
49.931	450
49.981	445
50.031	442
50.082	436
50.132	433
50.182	429
50.233	426
50.283	424
50.333	424
50.384	424
50.434	427
50.484	427
50.534	432
50.584	437
50.635	440
50.685	443
50.735	449
50.785	453
50.835	457
50.885	460
50.936	462
50.986	462
51.036	462
51.086	461
51.137	459
51.187	456
51.238	452
51.288	448
51.338	443
51.388	439
51.438	434
51.489	431
51.539	428
51.589	426
51.639	424
51.689	425
51.739	425
51.790	427
51.840	430
51.890	434
51.940	437
51.990	441
52.041	446
52.092	450
52.142	455
52.192	459
52.242	460
52.292	462
52.343	462
52.393	460
52.443	460
52.493	457
52.543	454
52.593	449
52.644	446
52.694	441
52.744	437
52.794	432
52.844	430
52.894	428
52.946	425
52.996	424
53.046	426
53.096	427
53.146	429
53.197	431
53.247	437
53.297	440
53.347	444
53.397	448
53.447	452
53.498	456
53.548	459
53.598	461
53.648	462
53.698	461
53.749	460
53.799	458
53.850	455
53.900	451
53.950	448
54.000	443
54.051	439
54.101	435
54.151	432
54.201	429
54.251	427
54.301	426
54.352	426
54.402	427
54.452	429
54.502	430
54.552	434
54.603	438
54.653	442
54.703	447
54.754	451
54.804	454
54.854	457
54.905	459
54.955	460
55.005	460
55.055	460
55.105	459
55.155	457
55.206	454
55.256	449
55.306	447
55.356	442
55.406	439
55.457	434
55.507	431
55.557	427
55.607	428
55.658	426
55.708	426
55.759	428
55.809	430
55.859	432
55.909	436
55.959	440
56.009	445
56.060	448
56.110	452
56.160	455
56.210	458
56.260	459
56.311	460
56.361	461
56.411	459
56.461	457
56.511	455
56.562	451
56.613	447
56.663	443
56.713	440
56.763	436
56.813	432
56.864	430
56.914	428
56.964	427
57.014	427
57.064	428
57.114	429
57.165	431
57.215	434
57.265	439
57.315	442
57.365	446
57.415	450
57.467	453
57.517	456
57.567	458
57.617	460
57.667	460
57.718	459
57.768	458
57.818	457
57.868	453
57.918	449
57.968	447
58.019	442
58.069	438
58.119	434
58.169	433
58.219	429
58.269	427
58.320	428
58.371	426
58.421	428
58.471	431
58.521	433
58.572	436
58.622	440
58.672	444
58.722	448
58.772	451
58.822	454
58.873	457
58.923	458
58.973	460
59.023	460
59.073	458
59.123	456
59.174	453
59.224	451
59.275	448
59.325	444
59.375	440
59.426	436
59.476	434
59.526	431
59.576	429
59.626	429
59.676	427
59.727	429
59.777	429
59.827	432
59.877	435
59.927	438
59.977	442
60.028	445
60.078	450
60.129	452
60.179	455
60.229	457
60.280	459
60.330	459
60.380	458
60.430	457
60.480	455
60.530	452
60.581	450
60.631	445
60.681	442
60.731	438
60.781	435
60.832	433
60.882	431
60.932	429
60.982	428
61.033	428
61.083	429
61.134	431
61.184	433
61.234	437
61.284	440
61.334	444
61.384	447
61.435	451
61.485	453
61.535	456
61.585	457
61.635	458
61.686	458
61.736	458
61.786	456
61.836	453
61.886	451
61.937	448
61.988	444
62.038	441
62.088	437
62.138	434
62.188	432
62.238	430
62.289	430
62.339	430
62.389	429
62.439	430
62.489	432
62.540	435
62.590	437
62.640	442
62.690	445
62.740	447
62.790	452
62.842	455
62.892	456
62.942	457
62.992	458
63.042	457
63.093	455
63.143	454
63.193	452
63.243	448
63.293	445
63.343	443
63.394	439
63.444	436
63.494	433
63.544	431
63.594	430
63.644	429
63.695	429
63.746	430
63.796	432
63.846	434
63.896	437
63.947	440
63.997	443
64.047	446
64.097	450
64.147	453
64.197	454
64.248	456
64.298	458
64.348	456
64.398	455
64.448	455
64.498	452
64.549	451
64.599	448
64.650	445
64.700	440
64.750	437
64.801	435
64.851	433
64.901	431
64.951	430
65.001	430
65.051	431
65.102	432
65.152	434
65.202	436
65.252	439
65.302	441
65.352	445
65.403	448
65.453	450
65.503	454
65.554	456
65.604	457
65.655	457
65.705	457
65.755	455
65.805	454
65.855	451
65.905	449
65.956	446
66.006	442
66.056	439
66.106	436
66.156	434
66.206	432
66.257	431
66.307	431
66.357	430
66.407	431
66.458	433
66.509	435
66.559	438
66.609	441
66.659	443
66.709	446
66.759	449
66.810	452
66.860	454
66.910	455
66.960	456
67.010	457
67.061	455
67.111	454
67.161	452
67.211	450
67.261	447
67.311	444
67.363	441
67.413	437
67.463	435
67.513	433
67.563	432
67.613	432
67.664	431
67.714	431
67.764	432
67.814	433
67.864	437
67.915	440
67.965	442
68.015	445
68.065	447
68.115	451
68.165	453
68.216	454
68.267	456
68.317	456
68.367	455
68.417	455
68.467	453
68.518	450
68.568	448
68.618	446
68.668	443
68.718	440
68.769	437
68.819	435
68.869	433
68.919	432
68.969	431
69.019	432
69.070	432
69.120	434
69.171	436
69.221	438
69.271	441
69.321	443
69.372	447
69.422	448
69.472	451
69.522	454
69.572	455
69.623	455
69.673	455
69.723	456
69.773	453
69.823	451
69.873	449
69.924	448
69.974	443
70.025	442
70.075	439
70.125	436
70.176	435
70.226	433
70.276	432
70.326	431
70.376	432
70.426	434
70.477	435
70.527	437
70.577	440
70.627	443
70.677	445
70.727	448
70.778	450
70.828	452
70.878	453
70.929	454
70.979	455
71.030	454
71.080	453
71.130	452
71.180	451
71.230	447
71.280	445
71.331	443
71.381	440
71.431	437
71.481	436
71.531	434
71.581	432
71.632	432
71.682	433
71.732	434
71.782	434
71.833	436
71.884	438
71.934	443
71.984	444
72.034	445
72.084	448
72.134	450
72.185	452
72.235	454
72.285	455
72.335	454
72.385	454
72.435	452
72.486	451
72.536	449
72.586	447
72.636	443
72.686	442
72.738	439
72.788	437
72.838	436
72.888	433
72.938	432
72.988	432
73.039	433
73.089	434
73.139	435
73.189	438
73.239	439
73.289	442
73.340	444
73.390	447
73.440	449
73.490	451
73.540	452
73.591	453
73.642	454
73.692	454
73.742	453
73.792	452
73.842	449
73.893	447
73.943	445
73.993	442
74.043	440
74.093	438
74.144	437
74.194	436
74.244	433
74.294	433
74.344	434
74.394	434
74.445	435
74.495	437
74.546	439
74.596	441
74.646	444
74.696	446
74.747	448
74.797	449
74.847	451
74.897	453
74.947	452
74.998	454
75.048	452
75.098	451
75.148	450
75.198	449
75.248	446
75.299	444
75.349	442
75.399	440
75.450	437
75.500	435
75.550	434
75.601	433
75.651	433
75.701	434
75.751	434
75.801	436
75.852	438
